{
  "aor": 0.001229390243902439,
  "aqi": 0.005613682865853658,
  "bids_meta": {
    "AcquisitionMatrixPE": 96,
    "AcquisitionNumber": 1,
    "AcquisitionTime": "14:50:50.305000",
    "BandwidthPerPixelPhaseEncode": 52.083,
    "BaseResolution": 96,
    "BodyPartExamined": "HEAD",
    "ConversionSoftware": "dcm2niix",
    "ConversionSoftwareVersion": "v1.0.20180622 GCC6.3.0",
    "DerivedVendorReportedEchoSpacing": 0.000600004,
    "DeviceSerialNumber": "18926",
    "DwellTime": 2.6e-06,
    "EchoTime": 0.025,
    "EffectiveEchoSpacing": 0.000200001,
    "FlipAngle": 50,
    "ImageOrientationPatientDICOM": [
      0.999992,
      0.00067012,
      0.00404905,
      2.11009e-10,
      0.98658,
      -0.16328
    ],
    "ImageType": [
      "ORIGINAL",
      "PRIMARY",
      "M",
      "ND",
      "ECHO",
      "00",
      "MOSAIC"
    ],
    "InPlanePhaseEncodingDirectionDICOM": "ROW",
    "InstitutionName": "NIMH",
    "InstitutionalDepartmentName": "Department",
    "MRAcquisitionType": "2D",
    "MagneticFieldStrength": 6.98,
    "Manufacturer": "Siemens",
    "ManufacturersModelName": "Investigational_Device_7T",
    "Modality": "MR",
    "ParallelReductionFactorInPlane": 3,
    "PartialFourier": 1,
    "PatientPosition": "HFS",
    "PercentPhaseFOV": 100,
    "PhaseEncodingDirection": "i",
    "PhaseEncodingSteps": 94,
    "PhaseResolution": 1,
    "PixelBandwidth": 2003,
    "ProcedureStepDescription": "UserProtocols_gonzalez",
    "ProtocolName": "NIH_EPI_2.0iso_TR2_Run06",
    "PulseSequenceDetails": "%CustomerSeq%_inati_nih_epi",
    "ReceiveCoilName": "32Ch_Head_7T",
    "ReconMatrixPE": 96,
    "RepetitionTime": 2,
    "SAR": 0.081572,
    "ScanningSequence": "EP",
    "SequenceName": "epfid2d1_96",
    "SequenceVariant": "SK",
    "SeriesDescription": "NIH_EPI_2.0iso_TR2_Run06",
    "SeriesNumber": 10,
    "ShimSetting": [
      -121,
      182,
      1360,
      1939,
      -100,
      294,
      615,
      -242
    ],
    "SliceThickness": 2,
    "SliceTiming": [
      1.0025,
      0,
      1.04,
      0.0375,
      1.0775,
      0.075,
      1.115,
      0.1125,
      1.1525,
      0.1475,
      1.19,
      0.185,
      1.2275,
      0.2225,
      1.265,
      0.26,
      1.3,
      0.2975,
      1.3375,
      0.335,
      1.375,
      0.3725,
      1.4125,
      0.41,
      1.45,
      0.445,
      1.4875,
      0.4825,
      1.525,
      0.52,
      1.5625,
      0.5575,
      1.5975,
      0.595,
      1.635,
      0.6325,
      1.6725,
      0.67,
      1.71,
      0.7075,
      1.7475,
      0.7425,
      1.785,
      0.78,
      1.8225,
      0.8175,
      1.86,
      0.855,
      1.895,
      0.8925,
      1.9325,
      0.93,
      1.97,
      0.9675
    ],
    "SoftwareVersions": "syngo_MR_B17",
    "SpacingBetweenSlices": 2,
    "StationName": "FMRIFD7T",
    "TaskName": "FullFovNoAttentionTask",
    "TotalReadoutTime": 0.0190001,
    "TxRefAmp": 285,
    "dataset": "ds001555",
    "dcmmeta_affine": [
      [
        -1.9999831914901733,
        4.2201880878778297e-10,
        0.008208253420889378,
        95.76705169677734
      ],
      [
        -0.0013402394251897931,
        1.973159670829773,
        -0.32655632495880127,
        -62.44346618652344
      ],
      [
        0.008098097518086433,
        0.32655906677246094,
        1.9731431007385254,
        -45.61852264404297
      ],
      [
        0.0,
        0.0,
        0.0,
        1.0
      ]
    ],
    "dcmmeta_reorient_transform": [
      [
        0.0,
        -1.0,
        0.0,
        95.0
      ],
      [
        1.0,
        0.0,
        0.0,
        0.0
      ],
      [
        0.0,
        0.0,
        1.0,
        0.0
      ],
      [
        0.0,
        0.0,
        0.0,
        1.0
      ]
    ],
    "dcmmeta_shape": [
      96,
      96,
      54,
      164
    ],
    "dcmmeta_slice_dim": 2,
    "dcmmeta_version": 0.6,
    "global": {
      "const": {
        "AcquisitionMatrix": [
          0,
          96,
          96,
          0
        ],
        "AngioFlag": "N",
        "BitsAllocated": 16,
        "BitsStored": 12,
        "BodyPartExamined": "HEAD",
        "Columns": 768,
        "EchoNumbers": 1,
        "EchoTime": 25.0,
        "EchoTrainLength": 1,
        "FlipAngle": 50.0,
        "HighBit": 11,
        "ImageOrientationPatient": [
          0.99999157803662,
          0.00067011969073,
          0.00404904870684,
          2.110094e-10,
          0.98657984636313,
          -0.1632795356133
        ],
        "ImagePositionPatient": [
          -767.761392775,
          -788.43868109794,
          92.407477460401
        ],
        "ImageType": [
          "ORIGINAL",
          "PRIMARY",
          "M",
          "ND",
          "ECHO_00",
          "MOSAIC"
        ],
        "ImagedNucleus": "1H",
        "ImagingFrequency": 297.20499,
        "InPlanePhaseEncodingDirection": "ROW",
        "LargestImagePixelValue": 4095,
        "MRAcquisitionType": "2D",
        "MagneticFieldStrength": 6.98,
        "Manufacturer": "SIEMENS",
        "ManufacturerModelName": "Investigational_Device_7T",
        "Modality": "MR",
        "NumberOfAverages": 1.0,
        "NumberOfPhaseEncodingSteps": 94,
        "PercentPhaseFieldOfView": 100.0,
        "PercentSampling": 100.0,
        "PerformedProcedureStepStartTime": "135833.816000",
        "PhotometricInterpretation": "MONOCHROME2",
        "PixelBandwidth": 2003.0,
        "PixelRepresentation": 0,
        "PixelSpacing": [
          2.0,
          2.0
        ],
        "PositionReferenceIndicator": "",
        "ProtocolName": "NIH_EPI_2.0iso_TR2_Run06",
        "RepetitionTime": 2000.0,
        "Rows": 768,
        "SAR": 0.08157201477135,
        "SamplesPerPixel": 1,
        "ScanningSequence": "EP",
        "SequenceName": "epfid2d1_96",
        "SequenceVariant": "SK",
        "SeriesDescription": "NIH_EPI_2.0iso_TR2_Run06",
        "SeriesNumber": 10,
        "SliceLocation": -34.417240375035,
        "SliceThickness": 2.0,
        "SmallestImagePixelValue": 0,
        "SoftwareVersions": "syngo MR B17",
        "SpacingBetweenSlices": 1.9999999829181,
        "TransmitCoilName": "32Ch_Head_7T",
        "VariableFlipAngleFlag": "N",
        "WindowCenterWidthExplanation": "Algo1",
        "dBdt": 0.0
      },
      "slices": {}
    },
    "modality": "bold",
    "run_id": 7,
    "session_id": "02",
    "subject_id": "002",
    "task_id": "FullFovNoAttentionTask",
    "time": {
      "samples": {
        "AcquisitionNumber": [
          1,
          2,
          3,
          4,
          5,
          6,
          7,
          8,
          9,
          10,
          11,
          12,
          13,
          14,
          15,
          16,
          17,
          18,
          19,
          20,
          21,
          22,
          23,
          24,
          25,
          26,
          27,
          28,
          29,
          30,
          31,
          32,
          33,
          34,
          35,
          36,
          37,
          38,
          39,
          40,
          41,
          42,
          43,
          44,
          45,
          46,
          47,
          48,
          49,
          50,
          51,
          52,
          53,
          54,
          55,
          56,
          57,
          58,
          59,
          60,
          61,
          62,
          63,
          64,
          65,
          66,
          67,
          68,
          69,
          70,
          71,
          72,
          73,
          74,
          75,
          76,
          77,
          78,
          79,
          80,
          81,
          82,
          83,
          84,
          85,
          86,
          87,
          88,
          89,
          90,
          91,
          92,
          93,
          94,
          95,
          96,
          97,
          98,
          99,
          100,
          101,
          102,
          103,
          104,
          105,
          106,
          107,
          108,
          109,
          110,
          111,
          112,
          113,
          114,
          115,
          116,
          117,
          118,
          119,
          120,
          121,
          122,
          123,
          124,
          125,
          126,
          127,
          128,
          129,
          130,
          131,
          132,
          133,
          134,
          135,
          136,
          137,
          138,
          139,
          140,
          141,
          142,
          143,
          144,
          145,
          146,
          147,
          148,
          149,
          150,
          151,
          152,
          153,
          154,
          155,
          156,
          157,
          158,
          159,
          160,
          161,
          162,
          163,
          164
        ],
        "AcquisitionTime": [
          "145050.305000",
          "145054.322500",
          "145056.330000",
          "145058.337500",
          "145100.347500",
          "145102.355000",
          "145104.362500",
          "145106.370000",
          "145108.377500",
          "145110.387500",
          "145112.395000",
          "145114.402500",
          "145116.410000",
          "145118.417500",
          "145120.427500",
          "145122.435000",
          "145124.442500",
          "145126.450000",
          "145128.460000",
          "145130.467500",
          "145132.475000",
          "145134.482500",
          "145136.490000",
          "145138.500000",
          "145140.507500",
          "145142.515000",
          "145144.522500",
          "145146.530000",
          "145148.540000",
          "145150.547500",
          "145152.555000",
          "145154.562500",
          "145156.572500",
          "145158.580000",
          "145200.587500",
          "145202.595000",
          "145204.602500",
          "145206.612500",
          "145208.620000",
          "145210.627500",
          "145212.635000",
          "145214.642500",
          "145216.652500",
          "145218.660000",
          "145220.667500",
          "145222.675000",
          "145224.682500",
          "145226.692500",
          "145228.700000",
          "145230.707500",
          "145232.715000",
          "145234.725000",
          "145236.732500",
          "145238.740000",
          "145240.747500",
          "145242.755000",
          "145244.765000",
          "145246.772500",
          "145248.780000",
          "145250.787500",
          "145252.795000",
          "145254.805000",
          "145256.812500",
          "145258.820000",
          "145300.827500",
          "145302.837500",
          "145304.845000",
          "145306.852500",
          "145308.860000",
          "145310.867500",
          "145312.877500",
          "145314.885000",
          "145316.892500",
          "145318.900000",
          "145320.907500",
          "145322.917500",
          "145324.925000",
          "145326.932500",
          "145328.940000",
          "145330.950000",
          "145332.957500",
          "145334.965000",
          "145336.972500",
          "145338.980000",
          "145340.990000",
          "145342.997500",
          "145345.005000",
          "145347.012500",
          "145349.020000",
          "145351.030000",
          "145353.037500",
          "145355.045000",
          "145357.052500",
          "145359.060000",
          "145401.070000",
          "145403.077500",
          "145405.085000",
          "145407.092500",
          "145409.102500",
          "145411.110000",
          "145413.117500",
          "145415.125000",
          "145417.132500",
          "145419.142500",
          "145421.150000",
          "145423.157500",
          "145425.165000",
          "145427.172500",
          "145429.182500",
          "145431.190000",
          "145433.197500",
          "145435.205000",
          "145437.215000",
          "145439.222500",
          "145441.230000",
          "145443.237500",
          "145445.245000",
          "145447.255000",
          "145449.262500",
          "145451.270000",
          "145453.277500",
          "145455.285000",
          "145457.295000",
          "145459.302500",
          "145501.310000",
          "145503.317500",
          "145505.327500",
          "145507.335000",
          "145509.342500",
          "145511.350000",
          "145513.357500",
          "145515.367500",
          "145517.375000",
          "145519.382500",
          "145521.390000",
          "145523.397500",
          "145525.407500",
          "145527.415000",
          "145529.422500",
          "145531.430000",
          "145533.437500",
          "145535.447500",
          "145537.455000",
          "145539.462500",
          "145541.470000",
          "145543.480000",
          "145545.487500",
          "145547.495000",
          "145549.502500",
          "145551.510000",
          "145553.520000",
          "145555.527500",
          "145557.535000",
          "145559.542500",
          "145601.550000",
          "145603.560000",
          "145605.567500",
          "145607.575000",
          "145609.582500",
          "145611.592500",
          "145613.600000",
          "145615.607500",
          "145617.615000",
          "145619.622500"
        ],
        "ContentTime": [
          "145145.816000",
          "145145.816000",
          "145145.816000",
          "145145.816000",
          "145145.832000",
          "145145.832000",
          "145145.832000",
          "145145.832000",
          "145145.832000",
          "145145.832000",
          "145145.832000",
          "145145.847000",
          "145145.847000",
          "145145.847000",
          "145145.847000",
          "145145.847000",
          "145145.847000",
          "145145.863000",
          "145145.863000",
          "145145.863000",
          "145145.894000",
          "145145.894000",
          "145145.910000",
          "145145.910000",
          "145145.910000",
          "145145.910000",
          "145225.800000",
          "145225.816000",
          "145225.816000",
          "145225.816000",
          "145225.816000",
          "145225.832000",
          "145225.832000",
          "145225.832000",
          "145225.832000",
          "145225.832000",
          "145225.832000",
          "145225.832000",
          "145225.847000",
          "145225.847000",
          "145225.847000",
          "145225.847000",
          "145225.847000",
          "145225.847000",
          "145225.847000",
          "145225.863000",
          "145305.800000",
          "145305.800000",
          "145305.816000",
          "145305.816000",
          "145305.816000",
          "145305.816000",
          "145305.816000",
          "145305.832000",
          "145305.832000",
          "145305.832000",
          "145305.847000",
          "145305.847000",
          "145305.847000",
          "145305.847000",
          "145305.847000",
          "145305.847000",
          "145305.863000",
          "145305.863000",
          "145305.863000",
          "145305.863000",
          "145345.800000",
          "145345.800000",
          "145345.800000",
          "145345.816000",
          "145345.816000",
          "145345.832000",
          "145345.832000",
          "145345.832000",
          "145345.832000",
          "145345.832000",
          "145345.832000",
          "145345.832000",
          "145345.847000",
          "145345.847000",
          "145345.847000",
          "145345.847000",
          "145345.847000",
          "145345.847000",
          "145345.847000",
          "145345.863000",
          "145425.800000",
          "145425.800000",
          "145425.816000",
          "145425.816000",
          "145425.816000",
          "145425.816000",
          "145425.816000",
          "145425.832000",
          "145425.832000",
          "145425.832000",
          "145425.832000",
          "145425.832000",
          "145425.847000",
          "145425.847000",
          "145425.847000",
          "145425.847000",
          "145425.847000",
          "145425.847000",
          "145425.847000",
          "145425.863000",
          "145505.800000",
          "145505.816000",
          "145505.816000",
          "145505.816000",
          "145505.816000",
          "145505.816000",
          "145505.816000",
          "145505.832000",
          "145505.832000",
          "145505.832000",
          "145505.832000",
          "145505.832000",
          "145505.832000",
          "145505.832000",
          "145505.847000",
          "145505.847000",
          "145505.847000",
          "145505.847000",
          "145505.847000",
          "145505.847000",
          "145545.800000",
          "145545.816000",
          "145545.816000",
          "145545.816000",
          "145545.816000",
          "145545.832000",
          "145545.832000",
          "145545.832000",
          "145545.832000",
          "145545.832000",
          "145545.832000",
          "145545.847000",
          "145545.847000",
          "145545.847000",
          "145545.863000",
          "145545.863000",
          "145545.863000",
          "145545.863000",
          "145545.863000",
          "145545.878000",
          "145620.597000",
          "145620.597000",
          "145620.597000",
          "145620.597000",
          "145620.597000",
          "145620.597000",
          "145620.613000",
          "145620.613000",
          "145620.613000",
          "145620.613000",
          "145620.613000",
          "145620.613000",
          "145620.628000",
          "145620.628000",
          "145620.628000",
          "145620.628000",
          "145620.628000",
          "145620.644000"
        ],
        "InstanceCreationTime": [
          "145145.816000",
          "145145.816000",
          "145145.816000",
          "145145.816000",
          "145145.832000",
          "145145.832000",
          "145145.832000",
          "145145.832000",
          "145145.832000",
          "145145.832000",
          "145145.832000",
          "145145.847000",
          "145145.847000",
          "145145.847000",
          "145145.847000",
          "145145.847000",
          "145145.847000",
          "145145.863000",
          "145145.863000",
          "145145.863000",
          "145145.894000",
          "145145.894000",
          "145145.910000",
          "145145.910000",
          "145145.910000",
          "145145.910000",
          "145225.800000",
          "145225.816000",
          "145225.816000",
          "145225.816000",
          "145225.816000",
          "145225.832000",
          "145225.832000",
          "145225.832000",
          "145225.832000",
          "145225.832000",
          "145225.832000",
          "145225.832000",
          "145225.847000",
          "145225.847000",
          "145225.847000",
          "145225.847000",
          "145225.847000",
          "145225.847000",
          "145225.847000",
          "145225.863000",
          "145305.800000",
          "145305.800000",
          "145305.816000",
          "145305.816000",
          "145305.816000",
          "145305.816000",
          "145305.816000",
          "145305.832000",
          "145305.832000",
          "145305.832000",
          "145305.847000",
          "145305.847000",
          "145305.847000",
          "145305.847000",
          "145305.847000",
          "145305.847000",
          "145305.863000",
          "145305.863000",
          "145305.863000",
          "145305.863000",
          "145345.800000",
          "145345.800000",
          "145345.800000",
          "145345.816000",
          "145345.816000",
          "145345.832000",
          "145345.832000",
          "145345.832000",
          "145345.832000",
          "145345.832000",
          "145345.832000",
          "145345.832000",
          "145345.847000",
          "145345.847000",
          "145345.847000",
          "145345.847000",
          "145345.847000",
          "145345.847000",
          "145345.847000",
          "145345.863000",
          "145425.800000",
          "145425.800000",
          "145425.816000",
          "145425.816000",
          "145425.816000",
          "145425.816000",
          "145425.816000",
          "145425.832000",
          "145425.832000",
          "145425.832000",
          "145425.832000",
          "145425.832000",
          "145425.847000",
          "145425.847000",
          "145425.847000",
          "145425.847000",
          "145425.847000",
          "145425.847000",
          "145425.847000",
          "145425.863000",
          "145505.800000",
          "145505.816000",
          "145505.816000",
          "145505.816000",
          "145505.816000",
          "145505.816000",
          "145505.816000",
          "145505.832000",
          "145505.832000",
          "145505.832000",
          "145505.832000",
          "145505.832000",
          "145505.832000",
          "145505.832000",
          "145505.847000",
          "145505.847000",
          "145505.847000",
          "145505.847000",
          "145505.847000",
          "145505.847000",
          "145545.800000",
          "145545.816000",
          "145545.816000",
          "145545.816000",
          "145545.816000",
          "145545.832000",
          "145545.832000",
          "145545.832000",
          "145545.832000",
          "145545.832000",
          "145545.832000",
          "145545.847000",
          "145545.847000",
          "145545.847000",
          "145545.863000",
          "145545.863000",
          "145545.863000",
          "145545.863000",
          "145545.863000",
          "145545.878000",
          "145620.597000",
          "145620.597000",
          "145620.597000",
          "145620.597000",
          "145620.597000",
          "145620.597000",
          "145620.613000",
          "145620.613000",
          "145620.613000",
          "145620.613000",
          "145620.613000",
          "145620.613000",
          "145620.628000",
          "145620.628000",
          "145620.628000",
          "145620.628000",
          "145620.628000",
          "145620.644000"
        ],
        "InstanceNumber": [
          1,
          2,
          3,
          4,
          5,
          6,
          7,
          8,
          9,
          10,
          11,
          12,
          13,
          14,
          15,
          16,
          17,
          18,
          19,
          20,
          21,
          22,
          23,
          24,
          25,
          26,
          27,
          28,
          29,
          30,
          31,
          32,
          33,
          34,
          35,
          36,
          37,
          38,
          39,
          40,
          41,
          42,
          43,
          44,
          45,
          46,
          47,
          48,
          49,
          50,
          51,
          52,
          53,
          54,
          55,
          56,
          57,
          58,
          59,
          60,
          61,
          62,
          63,
          64,
          65,
          66,
          67,
          68,
          69,
          70,
          71,
          72,
          73,
          74,
          75,
          76,
          77,
          78,
          79,
          80,
          81,
          82,
          83,
          84,
          85,
          86,
          87,
          88,
          89,
          90,
          91,
          92,
          93,
          94,
          95,
          96,
          97,
          98,
          99,
          100,
          101,
          102,
          103,
          104,
          105,
          106,
          107,
          108,
          109,
          110,
          111,
          112,
          113,
          114,
          115,
          116,
          117,
          118,
          119,
          120,
          121,
          122,
          123,
          124,
          125,
          126,
          127,
          128,
          129,
          130,
          131,
          132,
          133,
          134,
          135,
          136,
          137,
          138,
          139,
          140,
          141,
          142,
          143,
          144,
          145,
          146,
          147,
          148,
          149,
          150,
          151,
          152,
          153,
          154,
          155,
          156,
          157,
          158,
          159,
          160,
          161,
          162,
          163,
          164
        ],
        "WindowCenter": [
          1075.0,
          1077.0,
          1076.0,
          1074.0,
          1072.0,
          1073.0,
          1076.0,
          1073.0,
          1070.0,
          1074.0,
          1074.0,
          1075.0,
          1076.0,
          1079.0,
          1077.0,
          1077.0,
          1076.0,
          1075.0,
          1075.0,
          1074.0,
          1076.0,
          1074.0,
          1074.0,
          1074.0,
          1076.0,
          1074.0,
          1074.0,
          1073.0,
          1074.0,
          1073.0,
          1073.0,
          1073.0,
          1072.0,
          1074.0,
          1073.0,
          1073.0,
          1075.0,
          1073.0,
          1073.0,
          1072.0,
          1072.0,
          1075.0,
          1072.0,
          1073.0,
          1072.0,
          1073.0,
          1073.0,
          1075.0,
          1077.0,
          1074.0,
          1074.0,
          1073.0,
          1073.0,
          1075.0,
          1073.0,
          1074.0,
          1072.0,
          1072.0,
          1073.0,
          1072.0,
          1073.0,
          1073.0,
          1071.0,
          1073.0,
          1073.0,
          1072.0,
          1074.0,
          1074.0,
          1076.0,
          1072.0,
          1073.0,
          1073.0,
          1072.0,
          1074.0,
          1072.0,
          1072.0,
          1070.0,
          1073.0,
          1072.0,
          1071.0,
          1072.0,
          1070.0,
          1074.0,
          1074.0,
          1073.0,
          1070.0,
          1071.0,
          1074.0,
          1073.0,
          1073.0,
          1073.0,
          1074.0,
          1074.0,
          1075.0,
          1074.0,
          1075.0,
          1073.0,
          1074.0,
          1073.0,
          1071.0,
          1071.0,
          1073.0,
          1073.0,
          1072.0,
          1071.0,
          1074.0,
          1076.0,
          1073.0,
          1075.0,
          1076.0,
          1076.0,
          1075.0,
          1073.0,
          1073.0,
          1072.0,
          1072.0,
          1075.0,
          1071.0,
          1070.0,
          1072.0,
          1072.0,
          1070.0,
          1073.0,
          1074.0,
          1072.0,
          1072.0,
          1071.0,
          1070.0,
          1074.0,
          1076.0,
          1074.0,
          1076.0,
          1076.0,
          1074.0,
          1074.0,
          1075.0,
          1073.0,
          1074.0,
          1074.0,
          1072.0,
          1075.0,
          1076.0,
          1075.0,
          1074.0,
          1074.0,
          1077.0,
          1077.0,
          1074.0,
          1073.0,
          1075.0,
          1076.0,
          1074.0,
          1072.0,
          1073.0,
          1075.0,
          1073.0,
          1074.0,
          1074.0,
          1072.0,
          1073.0,
          1073.0,
          1076.0,
          1077.0,
          1075.0
        ],
        "WindowWidth": [
          2893.0,
          2905.0,
          2894.0,
          2890.0,
          2878.0,
          2893.0,
          2903.0,
          2884.0,
          2885.0,
          2891.0,
          2887.0,
          2897.0,
          2895.0,
          2903.0,
          2897.0,
          2904.0,
          2899.0,
          2900.0,
          2889.0,
          2890.0,
          2898.0,
          2889.0,
          2895.0,
          2889.0,
          2895.0,
          2889.0,
          2899.0,
          2892.0,
          2895.0,
          2893.0,
          2891.0,
          2889.0,
          2884.0,
          2898.0,
          2887.0,
          2890.0,
          2895.0,
          2886.0,
          2891.0,
          2882.0,
          2887.0,
          2897.0,
          2882.0,
          2894.0,
          2891.0,
          2887.0,
          2894.0,
          2903.0,
          2900.0,
          2892.0,
          2896.0,
          2885.0,
          2898.0,
          2897.0,
          2897.0,
          2893.0,
          2887.0,
          2890.0,
          2891.0,
          2888.0,
          2893.0,
          2892.0,
          2883.0,
          2893.0,
          2885.0,
          2887.0,
          2893.0,
          2895.0,
          2899.0,
          2887.0,
          2899.0,
          2888.0,
          2891.0,
          2893.0,
          2886.0,
          2885.0,
          2882.0,
          2895.0,
          2890.0,
          2890.0,
          2887.0,
          2880.0,
          2898.0,
          2890.0,
          2890.0,
          2881.0,
          2886.0,
          2898.0,
          2892.0,
          2892.0,
          2899.0,
          2896.0,
          2897.0,
          2897.0,
          2900.0,
          2894.0,
          2889.0,
          2895.0,
          2894.0,
          2882.0,
          2883.0,
          2894.0,
          2896.0,
          2883.0,
          2882.0,
          2897.0,
          2898.0,
          2886.0,
          2894.0,
          2897.0,
          2893.0,
          2896.0,
          2882.0,
          2890.0,
          2885.0,
          2886.0,
          2897.0,
          2883.0,
          2878.0,
          2889.0,
          2882.0,
          2874.0,
          2887.0,
          2893.0,
          2880.0,
          2887.0,
          2885.0,
          2883.0,
