{
  "aor": 0.0015728658536585368,
  "aqi": 0.004943859146341463,
  "bids_meta": {
    "AcquisitionMatrixPE": 96,
    "AcquisitionNumber": 1,
    "AcquisitionTime": "14:44:23.870000",
    "BandwidthPerPixelPhaseEncode": 52.083,
    "BaseResolution": 96,
    "BodyPartExamined": "HEAD",
    "ConversionSoftware": "dcm2niix",
    "ConversionSoftwareVersion": "v1.0.20180622 GCC6.3.0",
    "DerivedVendorReportedEchoSpacing": 0.000600004,
    "DeviceSerialNumber": "18926",
    "DwellTime": 2.6e-06,
    "EchoTime": 0.025,
    "EffectiveEchoSpacing": 0.000200001,
    "FlipAngle": 50,
    "ImageOrientationPatientDICOM": [
      0.999992,
      0.00067012,
      0.00404905,
      2.11009e-10,
      0.98658,
      -0.16328
    ],
    "ImageType": [
      "ORIGINAL",
      "PRIMARY",
      "M",
      "ND",
      "ECHO",
      "00",
      "MOSAIC"
    ],
    "InPlanePhaseEncodingDirectionDICOM": "ROW",
    "InstitutionName": "NIMH",
    "InstitutionalDepartmentName": "Department",
    "MRAcquisitionType": "2D",
    "MagneticFieldStrength": 6.98,
    "Manufacturer": "Siemens",
    "ManufacturersModelName": "Investigational_Device_7T",
    "Modality": "MR",
    "ParallelReductionFactorInPlane": 3,
    "PartialFourier": 1,
    "PatientPosition": "HFS",
    "PercentPhaseFOV": 100,
    "PhaseEncodingDirection": "i",
    "PhaseEncodingSteps": 94,
    "PhaseResolution": 1,
    "PixelBandwidth": 2003,
    "ProcedureStepDescription": "UserProtocols_gonzalez",
    "ProtocolName": "NIH_EPI_2.0iso_TR2_Run05",
    "PulseSequenceDetails": "%CustomerSeq%_inati_nih_epi",
    "ReceiveCoilName": "32Ch_Head_7T",
    "ReconMatrixPE": 96,
    "RepetitionTime": 2,
    "SAR": 0.081572,
    "ScanningSequence": "EP",
    "SequenceName": "epfid2d1_96",
    "SequenceVariant": "SK",
    "SeriesDescription": "NIH_EPI_2.0iso_TR2_Run05",
    "SeriesNumber": 9,
    "ShimSetting": [
      -121,
      182,
      1360,
      1939,
      -100,
      294,
      615,
      -242
    ],
    "SliceThickness": 2,
    "SliceTiming": [
      1.0025,
      0,
      1.04,
      0.035,
      1.0775,
      0.0725,
      1.115,
      0.11,
      1.1525,
      0.1475,
      1.1875,
      0.185,
      1.225,
      0.2225,
      1.2625,
      0.26,
      1.3,
      0.2975,
      1.3375,
      0.3325,
      1.375,
      0.37,
      1.4125,
      0.4075,
      1.45,
      0.445,
      1.485,
      0.4825,
      1.5225,
      0.52,
      1.56,
      0.5575,
      1.5975,
      0.5925,
      1.635,
      0.63,
      1.6725,
      0.6675,
      1.71,
      0.705,
      1.745,
      0.7425,
      1.7825,
      0.78,
      1.82,
      0.8175,
      1.8575,
      0.855,
      1.895,
      0.89,
      1.9325,
      0.9275,
      1.97,
      0.965
    ],
    "SoftwareVersions": "syngo_MR_B17",
    "SpacingBetweenSlices": 2,
    "StationName": "FMRIFD7T",
    "TaskName": "FullFovNoAttentionTask",
    "TotalReadoutTime": 0.0190001,
    "TxRefAmp": 285,
    "dataset": "ds001555",
    "dcmmeta_affine": [
      [
        -1.9999831914901733,
        4.2201880878778297e-10,
        0.008208253420889378,
        95.76705169677734
      ],
      [
        -0.0013402394251897931,
        1.973159670829773,
        -0.32655632495880127,
        -62.44346618652344
      ],
      [
        0.008098097518086433,
        0.32655906677246094,
        1.9731431007385254,
        -45.61852264404297
      ],
      [
        0.0,
        0.0,
        0.0,
        1.0
      ]
    ],
    "dcmmeta_reorient_transform": [
      [
        0.0,
        -1.0,
        0.0,
        95.0
      ],
      [
        1.0,
        0.0,
        0.0,
        0.0
      ],
      [
        0.0,
        0.0,
        1.0,
        0.0
      ],
      [
        0.0,
        0.0,
        0.0,
        1.0
      ]
    ],
    "dcmmeta_shape": [
      96,
      96,
      54,
      164
    ],
    "dcmmeta_slice_dim": 2,
    "dcmmeta_version": 0.6,
    "global": {
      "const": {
        "AcquisitionMatrix": [
          0,
          96,
          96,
          0
        ],
        "AngioFlag": "N",
        "BitsAllocated": 16,
        "BitsStored": 12,
        "BodyPartExamined": "HEAD",
        "Columns": 768,
        "EchoNumbers": 1,
        "EchoTime": 25.0,
        "EchoTrainLength": 1,
        "FlipAngle": 50.0,
        "HighBit": 11,
        "ImageOrientationPatient": [
          0.99999157803662,
          0.00067011969073,
          0.00404904870684,
          2.110094e-10,
          0.98657984636313,
          -0.1632795356133
        ],
        "ImagePositionPatient": [
          -767.761392775,
          -788.43868109794,
          92.407477460401
        ],
        "ImageType": [
          "ORIGINAL",
          "PRIMARY",
          "M",
          "ND",
          "ECHO_00",
          "MOSAIC"
        ],
        "ImagedNucleus": "1H",
        "ImagingFrequency": 297.204972,
        "InPlanePhaseEncodingDirection": "ROW",
        "LargestImagePixelValue": 4095,
        "MRAcquisitionType": "2D",
        "MagneticFieldStrength": 6.98,
        "Manufacturer": "SIEMENS",
        "ManufacturerModelName": "Investigational_Device_7T",
        "Modality": "MR",
        "NumberOfAverages": 1.0,
        "NumberOfPhaseEncodingSteps": 94,
        "PercentPhaseFieldOfView": 100.0,
        "PercentSampling": 100.0,
        "PerformedProcedureStepStartTime": "135833.816000",
        "PhotometricInterpretation": "MONOCHROME2",
        "PixelBandwidth": 2003.0,
        "PixelRepresentation": 0,
        "PixelSpacing": [
          2.0,
          2.0
        ],
        "PositionReferenceIndicator": "",
        "ProtocolName": "NIH_EPI_2.0iso_TR2_Run05",
        "RepetitionTime": 2000.0,
        "Rows": 768,
        "SAR": 0.08157201477135,
        "SamplesPerPixel": 1,
        "ScanningSequence": "EP",
        "SequenceName": "epfid2d1_96",
        "SequenceVariant": "SK",
        "SeriesDescription": "NIH_EPI_2.0iso_TR2_Run05",
        "SeriesNumber": 9,
        "SliceLocation": -34.417240375035,
        "SliceThickness": 2.0,
        "SmallestImagePixelValue": 0,
        "SoftwareVersions": "syngo MR B17",
        "SpacingBetweenSlices": 1.9999999829181,
        "TransmitCoilName": "32Ch_Head_7T",
        "VariableFlipAngleFlag": "N",
        "WindowCenterWidthExplanation": "Algo1",
        "dBdt": 0.0
      },
      "slices": {}
    },
    "modality": "bold",
    "run_id": 6,
    "session_id": "02",
    "subject_id": "002",
    "task_id": "FullFovNoAttentionTask",
    "time": {
      "samples": {
        "AcquisitionNumber": [
          1,
          2,
          3,
          4,
          5,
          6,
          7,
          8,
          9,
          10,
          11,
          12,
          13,
          14,
          15,
          16,
          17,
          18,
          19,
          20,
          21,
          22,
          23,
          24,
          25,
          26,
          27,
          28,
          29,
          30,
          31,
          32,
          33,
          34,
          35,
          36,
          37,
          38,
          39,
          40,
          41,
          42,
          43,
          44,
          45,
          46,
          47,
          48,
          49,
          50,
          51,
          52,
          53,
          54,
          55,
          56,
          57,
          58,
          59,
          60,
          61,
          62,
          63,
          64,
          65,
          66,
          67,
          68,
          69,
          70,
          71,
          72,
          73,
          74,
          75,
          76,
          77,
          78,
          79,
          80,
          81,
          82,
          83,
          84,
          85,
          86,
          87,
          88,
          89,
          90,
          91,
          92,
          93,
          94,
          95,
          96,
          97,
          98,
          99,
          100,
          101,
          102,
          103,
          104,
          105,
          106,
          107,
          108,
          109,
          110,
          111,
          112,
          113,
          114,
          115,
          116,
          117,
          118,
          119,
          120,
          121,
          122,
          123,
          124,
          125,
          126,
          127,
          128,
          129,
          130,
          131,
          132,
          133,
          134,
          135,
          136,
          137,
          138,
          139,
          140,
          141,
          142,
          143,
          144,
          145,
          146,
          147,
          148,
          149,
          150,
          151,
          152,
          153,
          154,
          155,
          156,
          157,
          158,
          159,
          160,
          161,
          162,
          163,
          164
        ],
        "AcquisitionTime": [
          "144423.870000",
          "144427.885000",
          "144429.895000",
          "144431.902500",
          "144433.910000",
          "144435.917500",
          "144437.927500",
          "144439.935000",
          "144441.942500",
          "144443.950000",
          "144445.957500",
          "144447.967500",
          "144449.975000",
          "144451.982500",
          "144453.990000",
          "144455.997500",
          "144458.007500",
          "144500.015000",
          "144502.022500",
          "144504.030000",
          "144506.040000",
          "144508.047500",
          "144510.055000",
          "144512.062500",
          "144514.070000",
          "144516.080000",
          "144518.087500",
          "144520.095000",
          "144522.102500",
          "144524.110000",
          "144526.120000",
          "144528.127500",
          "144530.135000",
          "144532.142500",
          "144534.152500",
          "144536.160000",
          "144538.167500",
          "144540.175000",
          "144542.182500",
          "144544.192500",
          "144546.200000",
          "144548.207500",
          "144550.215000",
          "144552.222500",
          "144554.232500",
          "144556.240000",
          "144558.247500",
          "144600.255000",
          "144602.262500",
          "144604.272500",
          "144606.280000",
          "144608.287500",
          "144610.295000",
          "144612.305000",
          "144614.312500",
          "144616.320000",
          "144618.327500",
          "144620.335000",
          "144622.345000",
          "144624.352500",
          "144626.360000",
          "144628.367500",
          "144630.375000",
          "144632.385000",
          "144634.392500",
          "144636.400000",
          "144638.407500",
          "144640.417500",
          "144642.425000",
          "144644.432500",
          "144646.440000",
          "144648.447500",
          "144650.457500",
          "144652.465000",
          "144654.472500",
          "144656.480000",
          "144658.487500",
          "144700.497500",
          "144702.505000",
          "144704.512500",
          "144706.520000",
          "144708.530000",
          "144710.537500",
          "144712.545000",
          "144714.552500",
          "144716.560000",
          "144718.570000",
          "144720.577500",
          "144722.585000",
          "144724.592500",
          "144726.600000",
          "144728.610000",
          "144730.617500",
          "144732.625000",
          "144734.632500",
          "144736.642500",
          "144738.650000",
          "144740.657500",
          "144742.665000",
          "144744.672500",
          "144746.682500",
          "144748.690000",
          "144750.697500",
          "144752.705000",
          "144754.712500",
          "144756.722500",
          "144758.730000",
          "144800.737500",
          "144802.745000",
          "144804.752500",
          "144806.762500",
          "144808.770000",
          "144810.777500",
          "144812.785000",
          "144814.795000",
          "144816.802500",
          "144818.810000",
          "144820.817500",
          "144822.825000",
          "144824.835000",
          "144826.842500",
          "144828.850000",
          "144830.857500",
          "144832.865000",
          "144834.875000",
          "144836.882500",
          "144838.890000",
          "144840.897500",
          "144842.907500",
          "144844.915000",
          "144846.922500",
          "144848.930000",
          "144850.937500",
          "144852.947500",
          "144854.955000",
          "144856.962500",
          "144858.970000",
          "144900.977500",
          "144902.987500",
          "144904.995000",
          "144907.002500",
          "144909.010000",
          "144911.020000",
          "144913.027500",
          "144915.035000",
          "144917.042500",
          "144919.050000",
          "144921.060000",
          "144923.067500",
          "144925.075000",
          "144927.082500",
          "144929.090000",
          "144931.100000",
          "144933.107500",
          "144935.115000",
          "144937.122500",
          "144939.130000",
          "144941.140000",
          "144943.147500",
          "144945.155000",
          "144947.162500",
          "144949.172500",
          "144951.180000",
          "144953.187500"
        ],
        "ContentTime": [
          "144514.160000",
          "144514.160000",
          "144514.160000",
          "144514.175000",
          "144514.175000",
          "144514.175000",
          "144514.175000",
          "144514.191000",
          "144514.191000",
          "144514.191000",
          "144514.191000",
          "144514.191000",
          "144514.191000",
          "144514.191000",
          "144514.207000",
          "144514.207000",
          "144514.207000",
          "144514.207000",
          "144514.207000",
          "144514.207000",
          "144514.222000",
          "144514.222000",
          "144514.222000",
          "144554.144000",
          "144554.144000",
          "144554.144000",
          "144554.144000",
          "144554.160000",
          "144554.160000",
          "144554.160000",
          "144554.160000",
          "144554.160000",
          "144554.175000",
          "144554.175000",
          "144554.175000",
          "144554.175000",
          "144554.175000",
          "144554.191000",
          "144554.191000",
          "144554.191000",
          "144554.191000",
          "144554.191000",
          "144554.191000",
          "144634.144000",
          "144634.144000",
          "144634.144000",
          "144634.144000",
          "144634.160000",
          "144634.160000",
          "144634.160000",
          "144634.160000",
          "144634.160000",
          "144634.160000",
          "144634.175000",
          "144634.175000",
          "144634.175000",
          "144634.191000",
          "144634.191000",
          "144634.207000",
          "144634.207000",
          "144634.207000",
          "144634.222000",
          "144634.222000",
          "144714.144000",
          "144714.144000",
          "144714.144000",
          "144714.144000",
          "144714.160000",
          "144714.160000",
          "144714.160000",
          "144714.160000",
          "144714.175000",
          "144714.175000",
          "144714.175000",
          "144714.175000",
          "144714.175000",
          "144714.175000",
          "144714.191000",
          "144714.191000",
          "144714.207000",
          "144714.207000",
          "144714.207000",
          "144714.207000",
          "144754.144000",
          "144754.144000",
          "144754.144000",
          "144754.144000",
          "144754.160000",
          "144754.160000",
          "144754.160000",
          "144754.160000",
          "144754.160000",
          "144754.160000",
          "144754.175000",
          "144754.175000",
          "144754.175000",
          "144754.175000",
          "144754.175000",
          "144754.175000",
          "144754.175000",
          "144754.191000",
          "144754.191000",
          "144754.191000",
          "144834.144000",
          "144834.144000",
          "144834.144000",
          "144834.144000",
          "144834.160000",
          "144834.160000",
          "144834.160000",
          "144834.175000",
          "144834.175000",
          "144834.175000",
          "144834.175000",
          "144834.175000",
          "144834.175000",
          "144834.191000",
          "144834.191000",
          "144834.191000",
          "144834.207000",
          "144834.207000",
          "144834.207000",
          "144834.207000",
          "144914.144000",
          "144914.144000",
          "144914.144000",
          "144914.144000",
          "144914.160000",
          "144914.160000",
          "144914.160000",
          "144914.160000",
          "144914.160000",
          "144914.160000",
          "144914.160000",
          "144914.175000",
          "144914.175000",
          "144914.175000",
          "144914.191000",
          "144914.191000",
          "144914.191000",
          "144914.191000",
          "144914.191000",
          "144914.191000",
          "144954.144000",
          "144954.144000",
          "144954.160000",
          "144954.160000",
          "144954.160000",
          "144954.160000",
          "144954.160000",
          "144954.160000",
          "144954.160000",
          "144954.175000",
          "144954.175000",
          "144954.175000",
          "144954.175000",
          "144954.175000",
          "144954.191000",
          "144954.191000",
          "144954.191000",
          "144954.191000",
          "144954.191000",
          "144954.191000",
          "144954.269000"
        ],
        "InstanceCreationTime": [
          "144514.160000",
          "144514.160000",
          "144514.160000",
          "144514.175000",
          "144514.175000",
          "144514.175000",
          "144514.175000",
          "144514.191000",
          "144514.191000",
          "144514.191000",
          "144514.191000",
          "144514.191000",
          "144514.191000",
          "144514.191000",
          "144514.207000",
          "144514.207000",
          "144514.207000",
          "144514.207000",
          "144514.207000",
          "144514.207000",
          "144514.222000",
          "144514.222000",
          "144514.222000",
          "144554.144000",
          "144554.144000",
          "144554.144000",
          "144554.144000",
          "144554.160000",
          "144554.160000",
          "144554.160000",
          "144554.160000",
          "144554.160000",
          "144554.175000",
          "144554.175000",
          "144554.175000",
          "144554.175000",
          "144554.175000",
          "144554.191000",
          "144554.191000",
          "144554.191000",
          "144554.191000",
          "144554.191000",
          "144554.191000",
          "144634.144000",
          "144634.144000",
          "144634.144000",
          "144634.144000",
          "144634.160000",
          "144634.160000",
          "144634.160000",
          "144634.160000",
          "144634.160000",
          "144634.160000",
          "144634.175000",
          "144634.175000",
          "144634.175000",
          "144634.191000",
          "144634.191000",
          "144634.207000",
          "144634.207000",
          "144634.207000",
          "144634.222000",
          "144634.222000",
          "144714.144000",
          "144714.144000",
          "144714.144000",
          "144714.144000",
          "144714.160000",
          "144714.160000",
          "144714.160000",
          "144714.160000",
          "144714.175000",
          "144714.175000",
          "144714.175000",
          "144714.175000",
          "144714.175000",
          "144714.175000",
          "144714.191000",
          "144714.191000",
          "144714.207000",
          "144714.207000",
          "144714.207000",
          "144714.207000",
          "144754.144000",
          "144754.144000",
          "144754.144000",
          "144754.144000",
          "144754.160000",
          "144754.160000",
          "144754.160000",
          "144754.160000",
          "144754.160000",
          "144754.160000",
          "144754.175000",
          "144754.175000",
          "144754.175000",
          "144754.175000",
          "144754.175000",
          "144754.175000",
          "144754.175000",
          "144754.191000",
          "144754.191000",
          "144754.191000",
          "144834.144000",
          "144834.144000",
          "144834.144000",
          "144834.144000",
          "144834.160000",
          "144834.160000",
          "144834.160000",
          "144834.175000",
          "144834.175000",
          "144834.175000",
          "144834.175000",
          "144834.175000",
          "144834.175000",
          "144834.191000",
          "144834.191000",
          "144834.191000",
          "144834.207000",
          "144834.207000",
          "144834.207000",
          "144834.207000",
          "144914.144000",
          "144914.144000",
          "144914.144000",
          "144914.144000",
          "144914.160000",
          "144914.160000",
          "144914.160000",
          "144914.160000",
          "144914.160000",
          "144914.160000",
          "144914.160000",
          "144914.175000",
          "144914.175000",
          "144914.175000",
          "144914.191000",
          "144914.191000",
          "144914.191000",
          "144914.191000",
          "144914.191000",
          "144914.191000",
          "144954.144000",
          "144954.144000",
          "144954.160000",
          "144954.160000",
          "144954.160000",
          "144954.160000",
          "144954.160000",
          "144954.160000",
          "144954.160000",
          "144954.175000",
          "144954.175000",
          "144954.175000",
          "144954.175000",
          "144954.175000",
          "144954.191000",
          "144954.191000",
          "144954.191000",
          "144954.191000",
          "144954.191000",
          "144954.191000",
          "144954.269000"
        ],
        "InstanceNumber": [
          1,
          2,
          3,
          4,
          5,
          6,
          7,
          8,
          9,
          10,
          11,
          12,
          13,
          14,
          15,
          16,
          17,
          18,
          19,
          20,
          21,
          22,
          23,
          24,
          25,
          26,
          27,
          28,
          29,
          30,
          31,
          32,
          33,
          34,
          35,
          36,
          37,
          38,
          39,
          40,
          41,
          42,
          43,
          44,
          45,
          46,
          47,
          48,
          49,
          50,
          51,
          52,
          53,
          54,
          55,
          56,
          57,
          58,
          59,
          60,
          61,
          62,
          63,
          64,
          65,
          66,
          67,
          68,
          69,
          70,
          71,
          72,
          73,
          74,
          75,
          76,
          77,
          78,
          79,
          80,
          81,
          82,
          83,
          84,
          85,
          86,
          87,
          88,
          89,
          90,
          91,
          92,
          93,
          94,
          95,
          96,
          97,
          98,
          99,
          100,
          101,
          102,
          103,
          104,
          105,
          106,
          107,
          108,
          109,
          110,
          111,
          112,
          113,
          114,
          115,
          116,
          117,
          118,
          119,
          120,
          121,
          122,
          123,
          124,
          125,
          126,
          127,
          128,
          129,
          130,
          131,
          132,
          133,
          134,
          135,
          136,
          137,
          138,
          139,
          140,
          141,
          142,
          143,
          144,
          145,
          146,
          147,
          148,
          149,
          150,
          151,
          152,
          153,
          154,
          155,
          156,
          157,
          158,
          159,
          160,
          161,
          162,
          163,
          164
        ],
        "WindowCenter": [
          1078.0,
          1073.0,
          1072.0,
          1075.0,
          1075.0,
          1074.0,
          1074.0,
          1074.0,
          1075.0,
          1076.0,
          1077.0,
          1075.0,
          1076.0,
          1078.0,
          1078.0,
          1077.0,
          1077.0,
          1078.0,
          1077.0,
          1079.0,
          1076.0,
          1078.0,
          1080.0,
          1079.0,
          1078.0,
          1076.0,
          1079.0,
          1079.0,
          1077.0,
          1075.0,
          1081.0,
          1079.0,
          1077.0,
          1078.0,
          1079.0,
          1077.0,
          1076.0,
          1074.0,
          1077.0,
          1080.0,
          1078.0,
          1078.0,
          1077.0,
          1075.0,
          1077.0,
          1078.0,
          1079.0,
          1079.0,
          1075.0,
          1074.0,
          1078.0,
          1082.0,
          1079.0,
          1075.0,
          1075.0,
          1075.0,
          1075.0,
          1074.0,
          1075.0,
          1076.0,
          1076.0,
          1075.0,
          1073.0,
          1073.0,
          1073.0,
          1074.0,
          1077.0,
          1075.0,
          1077.0,
          1077.0,
          1076.0,
          1078.0,
          1079.0,
          1075.0,
          1073.0,
          1075.0,
          1075.0,
          1076.0,
          1076.0,
          1076.0,
          1074.0,
          1071.0,
          1070.0,
          1075.0,
          1077.0,
          1074.0,
          1075.0,
          1075.0,
          1075.0,
          1075.0,
          1074.0,
          1075.0,
          1076.0,
          1075.0,
          1076.0,
          1074.0,
          1074.0,
          1073.0,
          1073.0,
          1074.0,
          1076.0,
          1075.0,
          1076.0,
          1074.0,
          1073.0,
          1076.0,
          1076.0,
          1076.0,
          1075.0,
          1074.0,
          1074.0,
          1074.0,
          1075.0,
          1075.0,
          1076.0,
          1075.0,
          1075.0,
          1075.0,
          1075.0,
          1073.0,
          1074.0,
          1074.0,
          1076.0,
          1076.0,
          1075.0,
          1076.0,
          1076.0,
          1076.0,
          1075.0,
          1077.0,
          1077.0,
          1078.0,
          1079.0,
          1079.0,
          1077.0,
          1078.0,
          1082.0,
          1080.0,
          1076.0,
          1072.0,
          1073.0,
          1075.0,
          1076.0,
          1076.0,
          1075.0,
          1074.0,
          1076.0,
          1076.0,
          1076.0,
          1076.0,
          1076.0,
          1076.0,
          1074.0,
          1075.0,
          1076.0,
          1075.0,
          1075.0,
          1074.0,
          1073.0,
          1073.0,
          1072.0,
          1075.0,
          1078.0,
          1078.0
        ],
        "WindowWidth": [
          2907.0,
          2883.0,
          2889.0,
          2900.0,
          2900.0,
          2903.0,
          2900.0,
          2898.0,
          2899.0,
          2905.0,
          2905.0,
          2899.0,
          2905.0,
          2912.0,
          2905.0,
          2902.0,
          2905.0,
          2909.0,
          2907.0,
          2906.0,
          2899.0,
          2905.0,
          2912.0,
          2906.0,
          2900.0,
          2898.0,
          2908.0,
          2910.0,
          2901.0,
          2900.0,
          2917.0,
          2904.0,
          2903.0,
          2911.0,
          2907.0,
          2899.0,
          2894.0,
          2891.0,
          2903.0,
          2914.0,
          2907.0,
          2907.0,
          2906.0,
          2897.0,
          2902.0,
          2906.0,
          2912.0,
          2911.0,
          2895.0,
          2894.0,
          2911.0,
          2920.0,
          2905.0,
          2894.0,
          2895.0,
          2894.0,
          2893.0,
          2895.0,
          2896.0,
          2902.0,
          2904.0,
          2898.0,
          2891.0,
          2888.0,
          2885.0,
          2898.0,
          2904.0,
          2895.0,
          2903.0,
          2902.0,
          2895.0,
          2909.0,
          2914.0,
          2892.0,
          2891.0,
          2899.0,
          2895.0,
          2902.0,
          2903.0,
          2897.0,
          2889.0,
          2878.0,
          2875.0,
          2898.0,
          2901.0,
          2890.0,
          2892.0,
          2898.0,
          2894.0,
          2897.0,
          2890.0,
          2902.0,
          2902.0,
          2894.0,
          2900.0,
          2896.0,
          2889.0,
          2894.0,
          2891.0,
          2897.0,
          2895.0,
          2891.0,
          2900.0,
          2893.0,
          2893.0,
          2904.0,
          2896.0,
          2903.0,
          2893.0,
          2892.0,
          2889.0,
          2888.0,
          2901.0,
          2896.0,
          2894.0,
          2898.0,
          2893.0,
          2890.0,
          2897.0,
          2887.0,
          2893.0,
          2899.0,
          2897.0,
          2899.0,
          2894.0,
          2899.0,
          2895.0,
          2901.0,
