{
  "aor": 0.0020921341463414635,
  "aqi": 0.004081395975609756,
  "bids_meta": {
    "AcquisitionMatrixPE": 96,
    "AcquisitionNumber": 1,
    "AcquisitionTime": "15:35:33.112500",
    "BandwidthPerPixelPhaseEncode": 52.083,
    "BaseResolution": 96,
    "BodyPartExamined": "HEAD",
    "ConversionSoftware": "dcm2niix",
    "ConversionSoftwareVersion": "v1.0.20180622 GCC6.3.0",
    "DerivedVendorReportedEchoSpacing": 0.000600004,
    "DeviceSerialNumber": "18926",
    "DwellTime": 2.6e-06,
    "EchoTime": 0.025,
    "EffectiveEchoSpacing": 0.000200001,
    "FlipAngle": 50,
    "ImageOrientationPatientDICOM": [
      0.999992,
      0.00067012,
      0.00404905,
      2.11009e-10,
      0.98658,
      -0.16328
    ],
    "ImageType": [
      "ORIGINAL",
      "PRIMARY",
      "M",
      "ND",
      "ECHO",
      "00",
      "MOSAIC"
    ],
    "InPlanePhaseEncodingDirectionDICOM": "ROW",
    "InstitutionName": "NIMH",
    "InstitutionalDepartmentName": "Department",
    "MRAcquisitionType": "2D",
    "MagneticFieldStrength": 6.98,
    "Manufacturer": "Siemens",
    "ManufacturersModelName": "Investigational_Device_7T",
    "Modality": "MR",
    "ParallelReductionFactorInPlane": 3,
    "PartialFourier": 1,
    "PatientPosition": "HFS",
    "PercentPhaseFOV": 100,
    "PhaseEncodingDirection": "i",
    "PhaseEncodingSteps": 94,
    "PhaseResolution": 1,
    "PixelBandwidth": 2003,
    "ProcedureStepDescription": "UserProtocols_gonzalez",
    "ProtocolName": "NIH_EPI_2.0iso_TR2_Run13",
    "PulseSequenceDetails": "%CustomerSeq%_inati_nih_epi",
    "ReceiveCoilName": "32Ch_Head_7T",
    "ReconMatrixPE": 96,
    "RepetitionTime": 2,
    "SAR": 0.081572,
    "ScanningSequence": "EP",
    "SequenceName": "epfid2d1_96",
    "SequenceVariant": "SK",
    "SeriesDescription": "NIH_EPI_2.0iso_TR2_Run13",
    "SeriesNumber": 17,
    "ShimSetting": [
      -121,
      182,
      1360,
      1939,
      -100,
      294,
      615,
      -242
    ],
    "SliceThickness": 2,
    "SliceTiming": [
      1.0025,
      0,
      1.04,
      0.0375,
      1.0775,
      0.0725,
      1.115,
      0.11,
      1.1525,
      0.1475,
      1.19,
      0.185,
      1.225,
      0.2225,
      1.2625,
      0.26,
      1.3,
      0.2975,
      1.3375,
      0.335,
      1.375,
      0.37,
      1.4125,
      0.4075,
      1.45,
      0.445,
      1.4875,
      0.4825,
      1.5225,
      0.52,
      1.56,
      0.5575,
      1.5975,
      0.595,
      1.635,
      0.6325,
      1.6725,
      0.6675,
      1.71,
      0.705,
      1.7475,
      0.7425,
      1.785,
      0.78,
      1.82,
      0.8175,
      1.8575,
      0.855,
      1.895,
      0.8925,
      1.9325,
      0.9275,
      1.97,
      0.965
    ],
    "SoftwareVersions": "syngo_MR_B17",
    "SpacingBetweenSlices": 2,
    "StationName": "FMRIFD7T",
    "TaskName": "FullFovNoAttentionTask",
    "TotalReadoutTime": 0.0190001,
    "TxRefAmp": 285,
    "dataset": "ds001555",
    "dcmmeta_affine": [
      [
        -1.9999831914901733,
        4.2201880878778297e-10,
        0.008208253420889378,
        95.76705169677734
      ],
      [
        -0.0013402394251897931,
        1.973159670829773,
        -0.32655632495880127,
        -62.44346618652344
      ],
      [
        0.008098097518086433,
        0.32655906677246094,
        1.9731431007385254,
        -45.61852264404297
      ],
      [
        0.0,
        0.0,
        0.0,
        1.0
      ]
    ],
    "dcmmeta_reorient_transform": [
      [
        0.0,
        -1.0,
        0.0,
        95.0
      ],
      [
        1.0,
        0.0,
        0.0,
        0.0
      ],
      [
        0.0,
        0.0,
        1.0,
        0.0
      ],
      [
        0.0,
        0.0,
        0.0,
        1.0
      ]
    ],
    "dcmmeta_shape": [
      96,
      96,
      54,
      164
    ],
    "dcmmeta_slice_dim": 2,
    "dcmmeta_version": 0.6,
    "global": {
      "const": {
        "AcquisitionMatrix": [
          0,
          96,
          96,
          0
        ],
        "AngioFlag": "N",
        "BitsAllocated": 16,
        "BitsStored": 12,
        "BodyPartExamined": "HEAD",
        "Columns": 768,
        "EchoNumbers": 1,
        "EchoTime": 25.0,
        "EchoTrainLength": 1,
        "FlipAngle": 50.0,
        "HighBit": 11,
        "ImageOrientationPatient": [
          0.99999157803662,
          0.00067011969073,
          0.00404904870684,
          2.110094e-10,
          0.98657984636313,
          -0.1632795356133
        ],
        "ImagePositionPatient": [
          -767.761392775,
          -788.43868109794,
          92.407477460401
        ],
        "ImageType": [
          "ORIGINAL",
          "PRIMARY",
          "M",
          "ND",
          "ECHO_00",
          "MOSAIC"
        ],
        "ImagedNucleus": "1H",
        "ImagingFrequency": 297.20509,
        "InPlanePhaseEncodingDirection": "ROW",
        "LargestImagePixelValue": 4095,
        "MRAcquisitionType": "2D",
        "MagneticFieldStrength": 6.98,
        "Manufacturer": "SIEMENS",
        "ManufacturerModelName": "Investigational_Device_7T",
        "Modality": "MR",
        "NumberOfAverages": 1.0,
        "NumberOfPhaseEncodingSteps": 94,
        "PercentPhaseFieldOfView": 100.0,
        "PercentSampling": 100.0,
        "PerformedProcedureStepStartTime": "135833.816000",
        "PhotometricInterpretation": "MONOCHROME2",
        "PixelBandwidth": 2003.0,
        "PixelRepresentation": 0,
        "PixelSpacing": [
          2.0,
          2.0
        ],
        "PositionReferenceIndicator": "",
        "ProtocolName": "NIH_EPI_2.0iso_TR2_Run13",
        "RepetitionTime": 2000.0,
        "Rows": 768,
        "SAR": 0.08157201477135,
        "SamplesPerPixel": 1,
        "ScanningSequence": "EP",
        "SequenceName": "epfid2d1_96",
        "SequenceVariant": "SK",
        "SeriesDescription": "NIH_EPI_2.0iso_TR2_Run13",
        "SeriesNumber": 17,
        "SliceLocation": -34.417240375035,
        "SliceThickness": 2.0,
        "SmallestImagePixelValue": 0,
        "SoftwareVersions": "syngo MR B17",
        "SpacingBetweenSlices": 1.9999999829181,
        "TransmitCoilName": "32Ch_Head_7T",
        "VariableFlipAngleFlag": "N",
        "WindowCenterWidthExplanation": "Algo1",
        "dBdt": 0.0
      },
      "slices": {}
    },
    "modality": "bold",
    "run_id": 14,
    "session_id": "02",
    "subject_id": "002",
    "task_id": "FullFovNoAttentionTask",
    "time": {
      "samples": {
        "AcquisitionNumber": [
          1,
          2,
          3,
          4,
          5,
          6,
          7,
          8,
          9,
          10,
          11,
          12,
          13,
          14,
          15,
          16,
          17,
          18,
          19,
          20,
          21,
          22,
          23,
          24,
          25,
          26,
          27,
          28,
          29,
          30,
          31,
          32,
          33,
          34,
          35,
          36,
          37,
          38,
          39,
          40,
          41,
          42,
          43,
          44,
          45,
          46,
          47,
          48,
          49,
          50,
          51,
          52,
          53,
          54,
          55,
          56,
          57,
          58,
          59,
          60,
          61,
          62,
          63,
          64,
          65,
          66,
          67,
          68,
          69,
          70,
          71,
          72,
          73,
          74,
          75,
          76,
          77,
          78,
          79,
          80,
          81,
          82,
          83,
          84,
          85,
          86,
          87,
          88,
          89,
          90,
          91,
          92,
          93,
          94,
          95,
          96,
          97,
          98,
          99,
          100,
          101,
          102,
          103,
          104,
          105,
          106,
          107,
          108,
          109,
          110,
          111,
          112,
          113,
          114,
          115,
          116,
          117,
          118,
          119,
          120,
          121,
          122,
          123,
          124,
          125,
          126,
          127,
          128,
          129,
          130,
          131,
          132,
          133,
          134,
          135,
          136,
          137,
          138,
          139,
          140,
          141,
          142,
          143,
          144,
          145,
          146,
          147,
          148,
          149,
          150,
          151,
          152,
          153,
          154,
          155,
          156,
          157,
          158,
          159,
          160,
          161,
          162,
          163,
          164
        ],
        "AcquisitionTime": [
          "153533.112500",
          "153537.130000",
          "153539.137500",
          "153541.145000",
          "153543.152500",
          "153545.162500",
          "153547.170000",
          "153549.177500",
          "153551.185000",
          "153553.192500",
          "153555.202500",
          "153557.210000",
          "153559.217500",
          "153601.225000",
          "153603.232500",
          "153605.242500",
          "153607.250000",
          "153609.257500",
          "153611.265000",
          "153613.272500",
          "153615.282500",
          "153617.290000",
          "153619.297500",
          "153621.305000",
          "153623.315000",
          "153625.322500",
          "153627.330000",
          "153629.337500",
          "153631.345000",
          "153633.355000",
          "153635.362500",
          "153637.370000",
          "153639.377500",
          "153641.385000",
          "153643.395000",
          "153645.402500",
          "153647.410000",
          "153649.417500",
          "153651.427500",
          "153653.435000",
          "153655.442500",
          "153657.450000",
          "153659.457500",
          "153701.467500",
          "153703.475000",
          "153705.482500",
          "153707.490000",
          "153709.497500",
          "153711.507500",
          "153713.515000",
          "153715.522500",
          "153717.530000",
          "153719.540000",
          "153721.547500",
          "153723.555000",
          "153725.562500",
          "153727.570000",
          "153729.580000",
          "153731.587500",
          "153733.595000",
          "153735.602500",
          "153737.610000",
          "153739.620000",
          "153741.627500",
          "153743.635000",
          "153745.642500",
          "153747.650000",
          "153749.660000",
          "153751.667500",
          "153753.675000",
          "153755.682500",
          "153757.692500",
          "153759.700000",
          "153801.707500",
          "153803.715000",
          "153805.722500",
          "153807.732500",
          "153809.740000",
          "153811.747500",
          "153813.755000",
          "153815.762500",
          "153817.772500",
          "153819.780000",
          "153821.787500",
          "153823.795000",
          "153825.805000",
          "153827.812500",
          "153829.820000",
          "153831.827500",
          "153833.835000",
          "153835.845000",
          "153837.852500",
          "153839.860000",
          "153841.867500",
          "153843.875000",
          "153845.885000",
          "153847.892500",
          "153849.900000",
          "153851.907500",
          "153853.917500",
          "153855.925000",
          "153857.932500",
          "153859.940000",
          "153901.947500",
          "153903.957500",
          "153905.965000",
          "153907.972500",
          "153909.980000",
          "153911.987500",
          "153913.997500",
          "153916.005000",
          "153918.012500",
          "153920.020000",
          "153922.027500",
          "153924.037500",
          "153926.045000",
          "153928.052500",
          "153930.060000",
          "153932.070000",
          "153934.077500",
          "153936.085000",
          "153938.092500",
          "153940.100000",
          "153942.110000",
          "153944.117500",
          "153946.125000",
          "153948.132500",
          "153950.140000",
          "153952.150000",
          "153954.157500",
          "153956.165000",
          "153958.172500",
          "154000.182500",
          "154002.190000",
          "154004.197500",
          "154006.205000",
          "154008.212500",
          "154010.222500",
          "154012.230000",
          "154014.237500",
          "154016.245000",
          "154018.252500",
          "154020.262500",
          "154022.270000",
          "154024.277500",
          "154026.285000",
          "154028.295000",
          "154030.302500",
          "154032.310000",
          "154034.317500",
          "154036.325000",
          "154038.335000",
          "154040.342500",
          "154042.350000",
          "154044.357500",
          "154046.365000",
          "154048.375000",
          "154050.382500",
          "154052.390000",
          "154054.397500",
          "154056.405000",
          "154058.415000",
          "154100.422500",
          "154102.430000"
        ],
        "ContentTime": [
          "153634.160000",
          "153634.160000",
          "153634.175000",
          "153634.175000",
          "153634.175000",
          "153634.175000",
          "153634.175000",
          "153634.191000",
          "153634.191000",
          "153634.191000",
          "153634.191000",
          "153634.191000",
          "153634.207000",
          "153634.207000",
          "153634.207000",
          "153634.207000",
          "153634.207000",
          "153634.207000",
          "153634.207000",
          "153634.222000",
          "153634.222000",
          "153634.222000",
          "153634.222000",
          "153634.222000",
          "153634.222000",
          "153634.238000",
          "153634.238000",
          "153634.238000",
          "153634.238000",
          "153714.144000",
          "153714.160000",
          "153714.160000",
          "153714.160000",
          "153714.160000",
          "153714.160000",
          "153714.160000",
          "153714.175000",
          "153714.175000",
          "153714.175000",
          "153714.175000",
          "153714.175000",
          "153714.191000",
          "153714.191000",
          "153714.191000",
          "153714.191000",
          "153714.191000",
          "153714.191000",
          "153714.191000",
          "153714.207000",
          "153754.144000",
          "153754.160000",
          "153754.160000",
          "153754.160000",
          "153754.160000",
          "153754.160000",
          "153754.160000",
          "153754.175000",
          "153754.175000",
          "153754.175000",
          "153754.175000",
          "153754.175000",
          "153754.175000",
          "153754.191000",
          "153754.191000",
          "153754.191000",
          "153754.191000",
          "153754.207000",
          "153754.207000",
          "153754.207000",
          "153834.144000",
          "153834.160000",
          "153834.160000",
          "153834.160000",
          "153834.160000",
          "153834.160000",
          "153834.175000",
          "153834.175000",
          "153834.175000",
          "153834.175000",
          "153834.175000",
          "153834.175000",
          "153834.175000",
          "153834.191000",
          "153834.191000",
          "153834.207000",
          "153834.207000",
          "153834.207000",
          "153834.207000",
          "153834.207000",
          "153914.144000",
          "153914.160000",
          "153914.160000",
          "153914.160000",
          "153914.160000",
          "153914.175000",
          "153914.175000",
          "153914.175000",
          "153914.175000",
          "153914.175000",
          "153914.175000",
          "153914.175000",
          "153914.191000",
          "153914.191000",
          "153914.191000",
          "153914.191000",
          "153914.191000",
          "153914.191000",
          "153914.207000",
          "153914.207000",
          "153954.144000",
          "153954.144000",
          "153954.144000",
          "153954.144000",
          "153954.160000",
          "153954.160000",
          "153954.160000",
          "153954.160000",
          "153954.160000",
          "153954.160000",
          "153954.175000",
          "153954.175000",
          "153954.175000",
          "153954.175000",
          "153954.175000",
          "153954.175000",
          "153954.191000",
          "153954.191000",
          "153954.191000",
          "153954.191000",
          "154034.144000",
          "154034.160000",
          "154034.160000",
          "154034.175000",
          "154034.175000",
          "154034.175000",
          "154034.175000",
          "154034.175000",
          "154034.175000",
          "154034.191000",
          "154034.191000",
          "154034.191000",
          "154034.191000",
          "154034.191000",
          "154034.191000",
          "154034.207000",
          "154034.207000",
          "154034.207000",
          "154034.207000",
          "154034.207000",
          "154103.550000",
          "154103.566000",
          "154103.566000",
          "154103.566000",
          "154103.566000",
          "154103.566000",
          "154103.582000",
          "154103.582000",
          "154103.582000",
          "154103.582000",
          "154103.582000",
          "154103.582000",
          "154103.597000",
          "154103.597000",
          "154103.613000"
        ],
        "InstanceCreationTime": [
          "153634.160000",
          "153634.160000",
          "153634.175000",
          "153634.175000",
          "153634.175000",
          "153634.175000",
          "153634.175000",
          "153634.191000",
          "153634.191000",
          "153634.191000",
          "153634.191000",
          "153634.191000",
          "153634.207000",
          "153634.207000",
          "153634.207000",
          "153634.207000",
          "153634.207000",
          "153634.207000",
          "153634.207000",
          "153634.222000",
          "153634.222000",
          "153634.222000",
          "153634.222000",
          "153634.222000",
          "153634.222000",
          "153634.238000",
          "153634.238000",
          "153634.238000",
          "153634.238000",
          "153714.144000",
          "153714.160000",
          "153714.160000",
          "153714.160000",
          "153714.160000",
          "153714.160000",
          "153714.160000",
          "153714.175000",
          "153714.175000",
          "153714.175000",
          "153714.175000",
          "153714.175000",
          "153714.191000",
          "153714.191000",
          "153714.191000",
          "153714.191000",
          "153714.191000",
          "153714.191000",
          "153714.191000",
          "153714.207000",
          "153754.144000",
          "153754.160000",
          "153754.160000",
          "153754.160000",
          "153754.160000",
          "153754.160000",
          "153754.160000",
          "153754.175000",
          "153754.175000",
          "153754.175000",
          "153754.175000",
          "153754.175000",
          "153754.175000",
          "153754.191000",
          "153754.191000",
          "153754.191000",
          "153754.191000",
          "153754.207000",
          "153754.207000",
          "153754.207000",
          "153834.144000",
          "153834.160000",
          "153834.160000",
          "153834.160000",
          "153834.160000",
          "153834.160000",
          "153834.175000",
          "153834.175000",
          "153834.175000",
          "153834.175000",
          "153834.175000",
          "153834.175000",
          "153834.175000",
          "153834.191000",
          "153834.191000",
          "153834.207000",
          "153834.207000",
          "153834.207000",
          "153834.207000",
          "153834.207000",
          "153914.144000",
          "153914.160000",
          "153914.160000",
          "153914.160000",
          "153914.160000",
          "153914.175000",
          "153914.175000",
          "153914.175000",
          "153914.175000",
          "153914.175000",
          "153914.175000",
          "153914.175000",
          "153914.191000",
          "153914.191000",
          "153914.191000",
          "153914.191000",
          "153914.191000",
          "153914.191000",
          "153914.207000",
          "153914.207000",
          "153954.144000",
          "153954.144000",
          "153954.144000",
          "153954.144000",
          "153954.160000",
          "153954.160000",
          "153954.160000",
          "153954.160000",
          "153954.160000",
          "153954.160000",
          "153954.175000",
          "153954.175000",
          "153954.175000",
          "153954.175000",
          "153954.175000",
          "153954.175000",
          "153954.191000",
          "153954.191000",
          "153954.191000",
          "153954.191000",
          "154034.144000",
          "154034.160000",
          "154034.160000",
          "154034.175000",
          "154034.175000",
          "154034.175000",
          "154034.175000",
          "154034.175000",
          "154034.175000",
          "154034.191000",
          "154034.191000",
          "154034.191000",
          "154034.191000",
          "154034.191000",
          "154034.191000",
          "154034.207000",
          "154034.207000",
          "154034.207000",
          "154034.207000",
          "154034.207000",
          "154103.550000",
          "154103.566000",
          "154103.566000",
          "154103.566000",
          "154103.566000",
          "154103.566000",
          "154103.582000",
          "154103.582000",
          "154103.582000",
          "154103.582000",
          "154103.582000",
          "154103.582000",
          "154103.597000",
          "154103.597000",
          "154103.613000"
        ],
        "InstanceNumber": [
          1,
          2,
          3,
          4,
          5,
          6,
          7,
          8,
          9,
          10,
          11,
          12,
          13,
          14,
          15,
          16,
          17,
          18,
          19,
          20,
          21,
          22,
          23,
          24,
          25,
          26,
          27,
          28,
          29,
          30,
          31,
          32,
          33,
          34,
          35,
          36,
          37,
          38,
          39,
          40,
          41,
          42,
          43,
          44,
          45,
          46,
          47,
          48,
          49,
          50,
          51,
          52,
          53,
          54,
          55,
          56,
          57,
          58,
          59,
          60,
          61,
          62,
          63,
          64,
          65,
          66,
          67,
          68,
          69,
          70,
          71,
          72,
          73,
          74,
          75,
          76,
          77,
          78,
          79,
          80,
          81,
          82,
          83,
          84,
          85,
          86,
          87,
          88,
          89,
          90,
          91,
          92,
          93,
          94,
          95,
          96,
          97,
          98,
          99,
          100,
          101,
          102,
          103,
          104,
          105,
          106,
          107,
          108,
          109,
          110,
          111,
          112,
          113,
          114,
          115,
          116,
          117,
          118,
          119,
          120,
          121,
          122,
          123,
          124,
          125,
          126,
          127,
          128,
          129,
          130,
          131,
          132,
          133,
          134,
          135,
          136,
          137,
          138,
          139,
          140,
          141,
          142,
          143,
          144,
          145,
          146,
          147,
          148,
          149,
          150,
          151,
          152,
          153,
          154,
          155,
          156,
          157,
          158,
          159,
          160,
          161,
          162,
          163,
          164
        ],
        "WindowCenter": [
          1073.0,
          1074.0,
          1073.0,
          1074.0,
          1074.0,
          1073.0,
          1075.0,
          1073.0,
          1072.0,
          1071.0,
          1070.0,
          1073.0,
          1072.0,
          1070.0,
          1069.0,
          1071.0,
          1070.0,
          1071.0,
          1071.0,
          1070.0,
          1069.0,
          1070.0,
          1071.0,
          1070.0,
          1072.0,
          1073.0,
          1071.0,
          1070.0,
          1072.0,
          1071.0,
          1070.0,
          1070.0,
          1068.0,
          1070.0,
          1069.0,
          1070.0,
          1070.0,
          1070.0,
          1071.0,
          1071.0,
          1073.0,
          1074.0,
          1073.0,
          1072.0,
          1075.0,
          1075.0,
          1075.0,
          1074.0,
          1073.0,
          1073.0,
          1073.0,
          1071.0,
          1071.0,
          1073.0,
          1073.0,
          1072.0,
          1073.0,
          1072.0,
          1074.0,
          1073.0,
          1073.0,
          1073.0,
          1073.0,
          1071.0,
          1071.0,
          1071.0,
          1073.0,
          1072.0,
          1071.0,
          1071.0,
          1071.0,
          1070.0,
          1071.0,
          1071.0,
          1071.0,
          1072.0,
          1070.0,
          1071.0,
          1070.0,
          1072.0,
          1072.0,
          1072.0,
          1071.0,
          1071.0,
          1074.0,
          1073.0,
          1070.0,
          1073.0,
          1072.0,
          1073.0,
          1073.0,
          1071.0,
          1070.0,
          1072.0,
          1070.0,
          1072.0,
          1071.0,
          1072.0,
          1074.0,
          1073.0,
          1072.0,
          1072.0,
          1074.0,
          1076.0,
          1074.0,
          1071.0,
          1070.0,
          1072.0,
          1070.0,
          1072.0,
          1073.0,
          1072.0,
          1072.0,
          1071.0,
          1073.0,
          1073.0,
          1072.0,
          1073.0,
          1072.0,
          1073.0,
          1072.0,
          1073.0,
          1071.0,
          1071.0,
          1071.0,
          1072.0,
          1072.0,
          1072.0,
          1074.0,
          1073.0,
          1073.0,
          1071.0,
          1071.0,
          1075.0,
          1074.0,
          1074.0,
          1073.0,
          1074.0,
          1075.0,
          1075.0,
          1074.0,
          1074.0,
          1073.0,
          1073.0,
          1074.0,
          1074.0,
          1073.0,
          1074.0,
          1074.0,
          1073.0,
          1072.0,
          1073.0,
          1072.0,
          1074.0,
          1073.0,
          1073.0,
          1074.0,
          1074.0,
          1073.0,
          1072.0,
          1073.0,
          1078.0,
          1077.0,
          1076.0
        ],
        "WindowWidth": [
          2885.0,
          2887.0,
          2884.0,
          2890.0,
          2881.0,
          2880.0,
          2898.0,
          2881.0,
          2881.0,
          2878.0,
          2882.0,
          2888.0,
          2877.0,
          2876.0,
          2878.0,
          2886.0,
          2875.0,
          2884.0,
          2880.0,
          2876.0,
          2872.0,
          2868.0,
          2879.0,
          2870.0,
          2879.0,
          2881.0,
          2879.0,
          2877.0,
          2885.0,
          2876.0,
          2877.0,
          2876.0,
          2869.0,
          2877.0,
          2871.0,
          2879.0,
          2872.0,
          2878.0,
          2884.0,
          2877.0,
          2890.0,
          2889.0,
          2884.0,
          2885.0,
          2891.0,
          2886.0,
          2894.0,
          2890.0,
          2891.0,
          2884.0,
          2883.0,
          2878.0,
          2876.0,
          2886.0,
          2879.0,
          2880.0,
          2879.0,
          2880.0,
          2885.0,
          2881.0,
          2884.0,
          2890.0,
          2876.0,
          2879.0,
          2879.0,
          2876.0,
          2885.0,
          2877.0,
          2883.0,
          2879.0,
          2881.0,
          2877.0,
          2882.0,
          2884.0,
          2879.0,
          2877.0,
          2875.0,
          2877.0,
          2869.0,
          2879.0,
          2881.0,
          2880.0,
          2869.0,
          2882.0,
          2886.0,
          2879.0,
          2874.0,
          2884.0,
          2879.0,
          2879.0,
          2877.0,
          2881.0,
          2876.0,
          2880.0,
          2873.0,
          2880.0,
          2878.0,
          2880.0,
          2891.0,
          2889.0,
          2884.0,
          2881.0,
          2892.0,
          2897.0,
          2885.0,
          2869.0,
          2875.0,
          2885.0,
          2871.0,
          2877.0,
          2879.0,
          2878.0,
          2875.0,
          2869.0,
          2882.0,
          2877.0,
          2883.0,
          2881.0,
          2874.0,
          2883.0,
          2876.0,
          2884.0,
          2877.0,
          2876.0,
          2876.0,
          2877.0,
          2876.0,
          2878.0,
