{
  "aor": 0.0035832926829268297,
  "aqi": 0.005092812012195122,
  "bids_meta": {
    "AcquisitionMatrixPE": 96,
    "AcquisitionNumber": 1,
    "AcquisitionTime": "14:31:35.430000",
    "BandwidthPerPixelPhaseEncode": 52.083,
    "BaseResolution": 96,
    "BodyPartExamined": "HEAD",
    "ConversionSoftware": "dcm2niix",
    "ConversionSoftwareVersion": "v1.0.20180622 GCC6.3.0",
    "DerivedVendorReportedEchoSpacing": 0.000600004,
    "DeviceSerialNumber": "18926",
    "DwellTime": 2.6e-06,
    "EchoTime": 0.025,
    "EffectiveEchoSpacing": 0.000200001,
    "FlipAngle": 50,
    "ImageOrientationPatientDICOM": [
      0.999992,
      0.00067012,
      0.00404905,
      2.11009e-10,
      0.98658,
      -0.16328
    ],
    "ImageType": [
      "ORIGINAL",
      "PRIMARY",
      "M",
      "ND",
      "ECHO",
      "00",
      "MOSAIC"
    ],
    "InPlanePhaseEncodingDirectionDICOM": "ROW",
    "InstitutionName": "NIMH",
    "InstitutionalDepartmentName": "Department",
    "MRAcquisitionType": "2D",
    "MagneticFieldStrength": 6.98,
    "Manufacturer": "Siemens",
    "ManufacturersModelName": "Investigational_Device_7T",
    "Modality": "MR",
    "ParallelReductionFactorInPlane": 3,
    "PartialFourier": 1,
    "PatientPosition": "HFS",
    "PercentPhaseFOV": 100,
    "PhaseEncodingDirection": "i",
    "PhaseEncodingSteps": 94,
    "PhaseResolution": 1,
    "PixelBandwidth": 2003,
    "ProcedureStepDescription": "UserProtocols_gonzalez",
    "ProtocolName": "NIH_EPI_2.0iso_TR2_Run03",
    "PulseSequenceDetails": "%CustomerSeq%_inati_nih_epi",
    "ReceiveCoilName": "32Ch_Head_7T",
    "ReconMatrixPE": 96,
    "RepetitionTime": 2,
    "SAR": 0.081572,
    "ScanningSequence": "EP",
    "SequenceName": "epfid2d1_96",
    "SequenceVariant": "SK",
    "SeriesDescription": "NIH_EPI_2.0iso_TR2_Run03",
    "SeriesNumber": 7,
    "ShimSetting": [
      -121,
      182,
      1360,
      1939,
      -100,
      294,
      615,
      -242
    ],
    "SliceThickness": 2,
    "SliceTiming": [
      1.0025,
      0,
      1.04,
      0.0375,
      1.0775,
      0.075,
      1.115,
      0.1125,
      1.1525,
      0.1475,
      1.19,
      0.185,
      1.2275,
      0.2225,
      1.265,
      0.26,
      1.3,
      0.2975,
      1.3375,
      0.335,
      1.375,
      0.3725,
      1.4125,
      0.41,
      1.45,
      0.445,
      1.4875,
      0.4825,
      1.525,
      0.52,
      1.5625,
      0.5575,
      1.5975,
      0.595,
      1.635,
      0.6325,
      1.6725,
      0.67,
      1.71,
      0.7075,
      1.7475,
      0.7425,
      1.785,
      0.78,
      1.8225,
      0.8175,
      1.86,
      0.855,
      1.895,
      0.8925,
      1.9325,
      0.93,
      1.97,
      0.9675
    ],
    "SoftwareVersions": "syngo_MR_B17",
    "SpacingBetweenSlices": 2,
    "StationName": "FMRIFD7T",
    "TaskName": "FullFovNoAttentionTask",
    "TotalReadoutTime": 0.0190001,
    "TxRefAmp": 285,
    "dataset": "ds001555",
    "dcmmeta_affine": [
      [
        -1.9999831914901733,
        4.2201880878778297e-10,
        0.008208253420889378,
        95.76705169677734
      ],
      [
        -0.0013402394251897931,
        1.973159670829773,
        -0.32655632495880127,
        -62.44346618652344
      ],
      [
        0.008098097518086433,
        0.32655906677246094,
        1.9731431007385254,
        -45.61852264404297
      ],
      [
        0.0,
        0.0,
        0.0,
        1.0
      ]
    ],
    "dcmmeta_reorient_transform": [
      [
        0.0,
        -1.0,
        0.0,
        95.0
      ],
      [
        1.0,
        0.0,
        0.0,
        0.0
      ],
      [
        0.0,
        0.0,
        1.0,
        0.0
      ],
      [
        0.0,
        0.0,
        0.0,
        1.0
      ]
    ],
    "dcmmeta_shape": [
      96,
      96,
      54,
      164
    ],
    "dcmmeta_slice_dim": 2,
    "dcmmeta_version": 0.6,
    "global": {
      "const": {
        "AcquisitionMatrix": [
          0,
          96,
          96,
          0
        ],
        "AngioFlag": "N",
        "BitsAllocated": 16,
        "BitsStored": 12,
        "BodyPartExamined": "HEAD",
        "Columns": 768,
        "EchoNumbers": 1,
        "EchoTime": 25.0,
        "EchoTrainLength": 1,
        "FlipAngle": 50.0,
        "HighBit": 11,
        "ImageOrientationPatient": [
          0.99999157803662,
          0.00067011969073,
          0.00404904870684,
          2.110094e-10,
          0.98657984636313,
          -0.1632795356133
        ],
        "ImagePositionPatient": [
          -767.761392775,
          -788.43868109794,
          92.407477460401
        ],
        "ImageType": [
          "ORIGINAL",
          "PRIMARY",
          "M",
          "ND",
          "ECHO_00",
          "MOSAIC"
        ],
        "ImagedNucleus": "1H",
        "ImagingFrequency": 297.204928,
        "InPlanePhaseEncodingDirection": "ROW",
        "LargestImagePixelValue": 4095,
        "MRAcquisitionType": "2D",
        "MagneticFieldStrength": 6.98,
        "Manufacturer": "SIEMENS",
        "ManufacturerModelName": "Investigational_Device_7T",
        "Modality": "MR",
        "NumberOfAverages": 1.0,
        "NumberOfPhaseEncodingSteps": 94,
        "PercentPhaseFieldOfView": 100.0,
        "PercentSampling": 100.0,
        "PerformedProcedureStepStartTime": "135833.816000",
        "PhotometricInterpretation": "MONOCHROME2",
        "PixelBandwidth": 2003.0,
        "PixelRepresentation": 0,
        "PixelSpacing": [
          2.0,
          2.0
        ],
        "PositionReferenceIndicator": "",
        "ProtocolName": "NIH_EPI_2.0iso_TR2_Run03",
        "RepetitionTime": 2000.0,
        "Rows": 768,
        "SAR": 0.08157201477135,
        "SamplesPerPixel": 1,
        "ScanningSequence": "EP",
        "SequenceName": "epfid2d1_96",
        "SequenceVariant": "SK",
        "SeriesDescription": "NIH_EPI_2.0iso_TR2_Run03",
        "SeriesNumber": 7,
        "SliceLocation": -34.417240375035,
        "SliceThickness": 2.0,
        "SmallestImagePixelValue": 0,
        "SoftwareVersions": "syngo MR B17",
        "SpacingBetweenSlices": 1.9999999829181,
        "TransmitCoilName": "32Ch_Head_7T",
        "VariableFlipAngleFlag": "N",
        "WindowCenterWidthExplanation": "Algo1",
        "dBdt": 0.0
      },
      "slices": {}
    },
    "modality": "bold",
    "run_id": 4,
    "session_id": "02",
    "subject_id": "002",
    "task_id": "FullFovNoAttentionTask",
    "time": {
      "samples": {
        "AcquisitionNumber": [
          1,
          2,
          3,
          4,
          5,
          6,
          7,
          8,
          9,
          10,
          11,
          12,
          13,
          14,
          15,
          16,
          17,
          18,
          19,
          20,
          21,
          22,
          23,
          24,
          25,
          26,
          27,
          28,
          29,
          30,
          31,
          32,
          33,
          34,
          35,
          36,
          37,
          38,
          39,
          40,
          41,
          42,
          43,
          44,
          45,
          46,
          47,
          48,
          49,
          50,
          51,
          52,
          53,
          54,
          55,
          56,
          57,
          58,
          59,
          60,
          61,
          62,
          63,
          64,
          65,
          66,
          67,
          68,
          69,
          70,
          71,
          72,
          73,
          74,
          75,
          76,
          77,
          78,
          79,
          80,
          81,
          82,
          83,
          84,
          85,
          86,
          87,
          88,
          89,
          90,
          91,
          92,
          93,
          94,
          95,
          96,
          97,
          98,
          99,
          100,
          101,
          102,
          103,
          104,
          105,
          106,
          107,
          108,
          109,
          110,
          111,
          112,
          113,
          114,
          115,
          116,
          117,
          118,
          119,
          120,
          121,
          122,
          123,
          124,
          125,
          126,
          127,
          128,
          129,
          130,
          131,
          132,
          133,
          134,
          135,
          136,
          137,
          138,
          139,
          140,
          141,
          142,
          143,
          144,
          145,
          146,
          147,
          148,
          149,
          150,
          151,
          152,
          153,
          154,
          155,
          156,
          157,
          158,
          159,
          160,
          161,
          162,
          163,
          164
        ],
        "AcquisitionTime": [
          "143135.430000",
          "143139.447500",
          "143141.455000",
          "143143.462500",
          "143145.472500",
          "143147.480000",
          "143149.487500",
          "143151.495000",
          "143153.502500",
          "143155.512500",
          "143157.520000",
          "143159.527500",
          "143201.535000",
          "143203.542500",
          "143205.552500",
          "143207.560000",
          "143209.567500",
          "143211.575000",
          "143213.585000",
          "143215.592500",
          "143217.600000",
          "143219.607500",
          "143221.615000",
          "143223.625000",
          "143225.632500",
          "143227.640000",
          "143229.647500",
          "143231.655000",
          "143233.665000",
          "143235.672500",
          "143237.680000",
          "143239.687500",
          "143241.695000",
          "143243.705000",
          "143245.712500",
          "143247.720000",
          "143249.727500",
          "143251.737500",
          "143253.745000",
          "143255.752500",
          "143257.760000",
          "143259.767500",
          "143301.777500",
          "143303.785000",
          "143305.792500",
          "143307.800000",
          "143309.807500",
          "143311.817500",
          "143313.825000",
          "143315.832500",
          "143317.840000",
          "143319.850000",
          "143321.857500",
          "143323.865000",
          "143325.872500",
          "143327.880000",
          "143329.890000",
          "143331.897500",
          "143333.905000",
          "143335.912500",
          "143337.920000",
          "143339.930000",
          "143341.937500",
          "143343.945000",
          "143345.952500",
          "143347.962500",
          "143349.970000",
          "143351.977500",
          "143353.985000",
          "143355.992500",
          "143358.002500",
          "143400.010000",
          "143402.017500",
          "143404.025000",
          "143406.032500",
          "143408.042500",
          "143410.050000",
          "143412.057500",
          "143414.065000",
          "143416.075000",
          "143418.082500",
          "143420.090000",
          "143422.097500",
          "143424.105000",
          "143426.115000",
          "143428.122500",
          "143430.130000",
          "143432.137500",
          "143434.145000",
          "143436.155000",
          "143438.162500",
          "143440.170000",
          "143442.177500",
          "143444.185000",
          "143446.195000",
          "143448.202500",
          "143450.210000",
          "143452.217500",
          "143454.227500",
          "143456.235000",
          "143458.242500",
          "143500.250000",
          "143502.257500",
          "143504.267500",
          "143506.275000",
          "143508.282500",
          "143510.290000",
          "143512.297500",
          "143514.307500",
          "143516.315000",
          "143518.322500",
          "143520.330000",
          "143522.340000",
          "143524.347500",
          "143526.355000",
          "143528.362500",
          "143530.370000",
          "143532.380000",
          "143534.387500",
          "143536.395000",
          "143538.402500",
          "143540.410000",
          "143542.420000",
          "143544.427500",
          "143546.435000",
          "143548.442500",
          "143550.452500",
          "143552.460000",
          "143554.467500",
          "143556.475000",
          "143558.482500",
          "143600.492500",
          "143602.500000",
          "143604.507500",
          "143606.515000",
          "143608.522500",
          "143610.532500",
          "143612.540000",
          "143614.547500",
          "143616.555000",
          "143618.562500",
          "143620.572500",
          "143622.580000",
          "143624.587500",
          "143626.595000",
          "143628.605000",
          "143630.612500",
          "143632.620000",
          "143634.627500",
          "143636.635000",
          "143638.645000",
          "143640.652500",
          "143642.660000",
          "143644.667500",
          "143646.675000",
          "143648.685000",
          "143650.692500",
          "143652.700000",
          "143654.707500",
          "143656.717500",
          "143658.725000",
          "143700.732500",
          "143702.740000",
          "143704.747500"
        ],
        "ContentTime": [
          "143225.816000",
          "143225.816000",
          "143225.832000",
          "143225.832000",
          "143225.832000",
          "143225.847000",
          "143225.847000",
          "143225.847000",
          "143225.847000",
          "143225.847000",
          "143225.847000",
          "143225.863000",
          "143225.863000",
          "143225.863000",
          "143225.863000",
          "143225.863000",
          "143225.863000",
          "143225.878000",
          "143225.878000",
          "143225.878000",
          "143225.878000",
          "143225.878000",
          "143225.894000",
          "143225.894000",
          "143305.816000",
          "143305.816000",
          "143305.816000",
          "143305.816000",
          "143305.816000",
          "143305.816000",
          "143305.832000",
          "143305.832000",
          "143305.832000",
          "143305.832000",
          "143305.832000",
          "143305.847000",
          "143305.847000",
          "143305.847000",
          "143305.847000",
          "143305.847000",
          "143305.847000",
          "143305.847000",
          "143305.863000",
          "143305.863000",
          "143345.816000",
          "143345.816000",
          "143345.816000",
          "143345.816000",
          "143345.816000",
          "143345.816000",
          "143345.816000",
          "143345.832000",
          "143345.832000",
          "143345.832000",
          "143345.832000",
          "143345.832000",
          "143345.832000",
          "143345.847000",
          "143345.847000",
          "143345.847000",
          "143345.847000",
          "143345.847000",
          "143345.863000",
          "143345.863000",
          "143425.816000",
          "143425.816000",
          "143425.816000",
          "143425.816000",
          "143425.816000",
          "143425.816000",
          "143425.816000",
          "143425.832000",
          "143425.832000",
          "143425.832000",
          "143425.832000",
          "143425.832000",
          "143425.832000",
          "143425.847000",
          "143425.847000",
          "143425.847000",
          "143425.847000",
          "143425.863000",
          "143425.863000",
          "143425.863000",
          "143505.800000",
          "143505.800000",
          "143505.816000",
          "143505.816000",
          "143505.832000",
          "143505.832000",
          "143505.832000",
          "143505.832000",
          "143505.847000",
          "143505.847000",
          "143505.847000",
          "143505.847000",
          "143505.847000",
          "143505.863000",
          "143505.863000",
          "143505.863000",
          "143505.863000",
          "143505.863000",
          "143505.863000",
          "143505.863000",
          "143545.800000",
          "143545.800000",
          "143545.800000",
          "143545.800000",
          "143545.816000",
          "143545.816000",
          "143545.816000",
          "143545.816000",
          "143545.816000",
          "143545.816000",
          "143545.832000",
          "143545.832000",
          "143545.832000",
          "143545.832000",
          "143545.832000",
          "143545.832000",
          "143545.832000",
          "143545.847000",
          "143545.847000",
          "143545.847000",
          "143625.800000",
          "143625.816000",
          "143625.816000",
          "143625.816000",
          "143625.832000",
          "143625.832000",
          "143625.832000",
          "143625.832000",
          "143625.832000",
          "143625.832000",
          "143625.832000",
          "143625.847000",
          "143625.847000",
          "143625.847000",
          "143625.847000",
          "143625.847000",
          "143625.847000",
          "143625.863000",
          "143625.863000",
          "143625.863000",
          "143705.644000",
          "143705.660000",
          "143705.660000",
          "143705.660000",
          "143705.660000",
          "143705.675000",
          "143705.675000",
          "143705.675000",
          "143705.675000",
          "143705.675000",
          "143705.675000",
          "143705.691000",
          "143705.691000",
          "143705.691000",
          "143705.707000",
          "143705.707000",
          "143705.707000",
          "143705.707000",
          "143705.707000",
          "143705.707000"
        ],
        "InstanceCreationTime": [
          "143225.816000",
          "143225.816000",
          "143225.832000",
          "143225.832000",
          "143225.832000",
          "143225.847000",
          "143225.847000",
          "143225.847000",
          "143225.847000",
          "143225.847000",
          "143225.847000",
          "143225.863000",
          "143225.863000",
          "143225.863000",
          "143225.863000",
          "143225.863000",
          "143225.863000",
          "143225.878000",
          "143225.878000",
          "143225.878000",
          "143225.878000",
          "143225.878000",
          "143225.894000",
          "143225.894000",
          "143305.816000",
          "143305.816000",
          "143305.816000",
          "143305.816000",
          "143305.816000",
          "143305.816000",
          "143305.832000",
          "143305.832000",
          "143305.832000",
          "143305.832000",
          "143305.832000",
          "143305.847000",
          "143305.847000",
          "143305.847000",
          "143305.847000",
          "143305.847000",
          "143305.847000",
          "143305.847000",
          "143305.863000",
          "143305.863000",
          "143345.816000",
          "143345.816000",
          "143345.816000",
          "143345.816000",
          "143345.816000",
          "143345.816000",
          "143345.816000",
          "143345.832000",
          "143345.832000",
          "143345.832000",
          "143345.832000",
          "143345.832000",
          "143345.832000",
          "143345.847000",
          "143345.847000",
          "143345.847000",
          "143345.847000",
          "143345.847000",
          "143345.863000",
          "143345.863000",
          "143425.816000",
          "143425.816000",
          "143425.816000",
          "143425.816000",
          "143425.816000",
          "143425.816000",
          "143425.816000",
          "143425.832000",
          "143425.832000",
          "143425.832000",
          "143425.832000",
          "143425.832000",
          "143425.832000",
          "143425.847000",
          "143425.847000",
          "143425.847000",
          "143425.847000",
          "143425.863000",
          "143425.863000",
          "143425.863000",
          "143505.800000",
          "143505.800000",
          "143505.816000",
          "143505.816000",
          "143505.832000",
          "143505.832000",
          "143505.832000",
          "143505.832000",
          "143505.847000",
          "143505.847000",
          "143505.847000",
          "143505.847000",
          "143505.847000",
          "143505.863000",
          "143505.863000",
          "143505.863000",
          "143505.863000",
          "143505.863000",
          "143505.863000",
          "143505.863000",
          "143545.800000",
          "143545.800000",
          "143545.800000",
          "143545.800000",
          "143545.816000",
          "143545.816000",
          "143545.816000",
          "143545.816000",
          "143545.816000",
          "143545.816000",
          "143545.832000",
          "143545.832000",
          "143545.832000",
          "143545.832000",
          "143545.832000",
          "143545.832000",
          "143545.832000",
          "143545.847000",
          "143545.847000",
          "143545.847000",
          "143625.800000",
          "143625.816000",
          "143625.816000",
          "143625.816000",
          "143625.832000",
          "143625.832000",
          "143625.832000",
          "143625.832000",
          "143625.832000",
          "143625.832000",
          "143625.832000",
          "143625.847000",
          "143625.847000",
          "143625.847000",
          "143625.847000",
          "143625.847000",
          "143625.847000",
          "143625.863000",
          "143625.863000",
          "143625.863000",
          "143705.644000",
          "143705.660000",
          "143705.660000",
          "143705.660000",
          "143705.660000",
          "143705.675000",
          "143705.675000",
          "143705.675000",
          "143705.675000",
          "143705.675000",
          "143705.675000",
          "143705.691000",
          "143705.691000",
          "143705.691000",
          "143705.707000",
          "143705.707000",
          "143705.707000",
          "143705.707000",
          "143705.707000",
          "143705.707000"
        ],
        "InstanceNumber": [
          1,
          2,
          3,
          4,
          5,
          6,
          7,
          8,
          9,
          10,
          11,
          12,
          13,
          14,
          15,
          16,
          17,
          18,
          19,
          20,
          21,
          22,
          23,
          24,
          25,
          26,
          27,
          28,
          29,
          30,
          31,
          32,
          33,
          34,
          35,
          36,
          37,
          38,
          39,
          40,
          41,
          42,
          43,
          44,
          45,
          46,
          47,
          48,
          49,
          50,
          51,
          52,
          53,
          54,
          55,
          56,
          57,
          58,
          59,
          60,
          61,
          62,
          63,
          64,
          65,
          66,
          67,
          68,
          69,
          70,
          71,
          72,
          73,
          74,
          75,
          76,
          77,
          78,
          79,
          80,
          81,
          82,
          83,
          84,
          85,
          86,
          87,
          88,
          89,
          90,
          91,
          92,
          93,
          94,
          95,
          96,
          97,
          98,
          99,
          100,
          101,
          102,
          103,
          104,
          105,
          106,
          107,
          108,
          109,
          110,
          111,
          112,
          113,
          114,
          115,
          116,
          117,
          118,
          119,
          120,
          121,
          122,
          123,
          124,
          125,
          126,
          127,
          128,
          129,
          130,
          131,
          132,
          133,
          134,
          135,
          136,
          137,
          138,
          139,
          140,
          141,
          142,
          143,
          144,
          145,
          146,
          147,
          148,
          149,
          150,
          151,
          152,
          153,
          154,
          155,
          156,
          157,
          158,
          159,
          160,
          161,
          162,
          163,
          164
        ],
        "WindowCenter": [
          1074.0,
          1073.0,
          1073.0,
          1073.0,
          1072.0,
          1073.0,
          1072.0,
          1074.0,
          1073.0,
          1073.0,
          1074.0,
          1076.0,
          1074.0,
          1073.0,
          1074.0,
          1074.0,
          1071.0,
          1073.0,
          1073.0,
          1072.0,
          1071.0,
          1071.0,
          1070.0,
          1071.0,
          1071.0,
          1069.0,
          1069.0,
          1070.0,
          1070.0,
          1070.0,
          1071.0,
          1070.0,
          1073.0,
          1072.0,
          1071.0,
          1070.0,
          1071.0,
          1071.0,
          1070.0,
          1069.0,
          1071.0,
          1075.0,
          1072.0,
          1070.0,
          1070.0,
          1071.0,
          1072.0,
          1071.0,
          1071.0,
          1071.0,
          1071.0,
          1073.0,
          1073.0,
          1074.0,
          1073.0,
          1073.0,
          1071.0,
          1071.0,
          1072.0,
          1073.0,
          1071.0,
          1071.0,
          1071.0,
          1073.0,
          1072.0,
          1071.0,
          1072.0,
          1072.0,
          1072.0,
          1071.0,
          1071.0,
          1071.0,
          1070.0,
          1072.0,
          1074.0,
          1073.0,
          1072.0,
          1070.0,
          1073.0,
          1073.0,
          1071.0,
          1071.0,
          1073.0,
          1073.0,
          1073.0,
          1074.0,
          1074.0,
          1073.0,
          1073.0,
          1073.0,
          1073.0,
          1072.0,
          1072.0,
          1073.0,
          1072.0,
          1072.0,
          1073.0,
          1071.0,
          1071.0,
          1071.0,
          1071.0,
          1072.0,
          1070.0,
          1071.0,
          1070.0,
          1073.0,
          1072.0,
          1071.0,
          1072.0,
          1072.0,
          1072.0,
          1072.0,
          1070.0,
          1070.0,
          1072.0,
          1073.0,
          1069.0,
          1071.0,
          1073.0,
          1072.0,
          1071.0,
          1070.0,
          1072.0,
          1072.0,
          1071.0,
          1073.0,
          1073.0,
          1073.0,
          1071.0,
          1073.0,
          1073.0,
          1072.0,
          1072.0,
          1072.0,
          1070.0,
          1070.0,
          1072.0,
          1072.0,
          1070.0,
          1069.0,
          1069.0,
          1072.0,
          1071.0,
          1071.0,
          1071.0,
          1072.0,
          1074.0,
          1076.0,
          1071.0,
          1074.0,
          1072.0,
          1068.0,
          1069.0,
          1070.0,
          1071.0,
          1069.0,
          1070.0,
          1071.0,
          1072.0,
          1072.0,
          1070.0,
          1073.0,
          1074.0,
          1079.0
        ],
        "WindowWidth": [
          2903.0,
          2896.0,
          2900.0,
          2892.0,
          2893.0,
          2897.0,
          2900.0,
          2903.0,
          2892.0,
          2899.0,
          2903.0,
          2909.0,
          2899.0,
          2900.0,
          2907.0,
          2903.0,
          2896.0,
          2907.0,
          2905.0,
          2899.0,
          2890.0,
          2902.0,
          2897.0,
          2904.0,
          2898.0,
          2887.0,
          2896.0,
          2898.0,
          2900.0,
          2895.0,
          2902.0,
          2894.0,
          2904.0,
          2897.0,
          2895.0,
          2888.0,
          2902.0,
          2900.0,
          2897.0,
          2887.0,
          2901.0,
          2914.0,
          2896.0,
          2891.0,
          2896.0,
          2899.0,
          2900.0,
          2904.0,
          2896.0,
          2899.0,
          2900.0,
          2904.0,
          2905.0,
          2907.0,
          2906.0,
          2897.0,
          2897.0,
          2896.0,
          2899.0,
          2896.0,
          2900.0,
          2894.0,
          2901.0,
          2904.0,
          2897.0,
          2896.0,
          2901.0,
          2903.0,
          2896.0,
          2896.0,
          2894.0,
          2898.0,
          2887.0,
          2896.0,
          2906.0,
          2906.0,
          2892.0,
          2896.0,
          2905.0,
          2900.0,
          2887.0,
          2894.0,
          2898.0,
          2895.0,
          2901.0,
          2905.0,
          2901.0,
          2896.0,
          2897.0,
          2904.0,
          2899.0,
          2900.0,
          2903.0,
          2907.0,
          2895.0,
          2898.0,
          2894.0,
          2892.0,
          2886.0,
          2889.0,
          2891.0,
          2892.0,
          2892.0,
          2889.0,
          2891.0,
          2902.0,
          2899.0,
          2893.0,
          2896.0,
          2901.0,
          2896.0,
          2895.0,
          2886.0,
          2891.0,
          2900.0,
          2891.0,
          2887.0,
          2898.0,
          2902.0,
          2894.0,
          2894.0,
          2887.0,
          2899.0,
          2900.0,
          2891.0,
          2899.0,
          2909.0,
          2898.0,
