{
  "aor": 0.0016767073170731708,
  "aqi": 0.005531321829268293,
  "bids_meta": {
    "AcquisitionMatrixPE": 96,
    "AcquisitionNumber": 1,
    "AcquisitionTime": "17:46:5.100000",
    "BandwidthPerPixelPhaseEncode": 52.083,
    "BaseResolution": 96,
    "BodyPartExamined": "HEAD",
    "ConversionSoftware": "dcm2niix",
    "ConversionSoftwareVersion": "v1.0.20180622 GCC6.3.0",
    "DerivedVendorReportedEchoSpacing": 0.000600004,
    "DeviceSerialNumber": "18926",
    "DwellTime": 2.6e-06,
    "EchoTime": 0.025,
    "EffectiveEchoSpacing": 0.000200001,
    "FlipAngle": 50,
    "ImageOrientationPatientDICOM": [
      0.999992,
      0.00067012,
      0.00404905,
      2.11009e-10,
      0.98658,
      -0.16328
    ],
    "ImageType": [
      "ORIGINAL",
      "PRIMARY",
      "M",
      "ND",
      "ECHO",
      "00",
      "MOSAIC"
    ],
    "InPlanePhaseEncodingDirectionDICOM": "ROW",
    "InstitutionName": "NIMH",
    "InstitutionalDepartmentName": "Department",
    "MRAcquisitionType": "2D",
    "MagneticFieldStrength": 6.98,
    "Manufacturer": "Siemens",
    "ManufacturersModelName": "Investigational_Device_7T",
    "Modality": "MR",
    "ParallelReductionFactorInPlane": 3,
    "PartialFourier": 1,
    "PatientPosition": "HFS",
    "PercentPhaseFOV": 100,
    "PhaseEncodingDirection": "i",
    "PhaseEncodingSteps": 94,
    "PhaseResolution": 1,
    "PixelBandwidth": 2003,
    "ProcedureStepDescription": "UserProtocols_gonzalez",
    "ProtocolName": "NIH_EPI_2.0iso_TR2_Run03b",
    "PulseSequenceDetails": "%CustomerSeq%_inati_nih_epi",
    "ReceiveCoilName": "32Ch_Head_7T",
    "ReconMatrixPE": 96,
    "RepetitionTime": 2,
    "SAR": 0.074259,
    "ScanningSequence": "EP",
    "SequenceName": "epfid2d1_96",
    "SequenceVariant": "SK",
    "SeriesDescription": "NIH_EPI_2.0iso_TR2_Run03b",
    "SeriesNumber": 8,
    "ShimSetting": [
      -67,
      220,
      792,
      820,
      -178,
      639,
      -147,
      -424
    ],
    "SliceThickness": 2,
    "SliceTiming": [
      1.005,
      0,
      1.0425,
      0.0375,
      1.08,
      0.075,
      1.115,
      0.1125,
      1.1525,
      0.15,
      1.19,
      0.1875,
      1.2275,
      0.2225,
      1.265,
      0.26,
      1.3025,
      0.2975,
      1.34,
      0.335,
      1.375,
      0.3725,
      1.4125,
      0.41,
      1.45,
      0.4475,
      1.4875,
      0.485,
      1.525,
      0.52,
      1.5625,
      0.5575,
      1.6,
      0.595,
      1.6375,
      0.6325,
      1.6725,
      0.67,
      1.71,
      0.7075,
      1.7475,
      0.745,
      1.785,
      0.7825,
      1.8225,
      0.8175,
      1.86,
      0.855,
      1.8975,
      0.8925,
      1.935,
      0.93,
      1.97,
      0.9675
    ],
    "SoftwareVersions": "syngo_MR_B17",
    "SpacingBetweenSlices": 2,
    "StationName": "FMRIFD7T",
    "TaskName": "HalfFovNoTask",
    "TotalReadoutTime": 0.0190001,
    "TxRefAmp": 310,
    "dataset": "ds001555",
    "dcmmeta_affine": [
      [
        -1.9999831914901733,
        4.2201880878778297e-10,
        0.008208253420889378,
        95.76705169677734
      ],
      [
        -0.0013402394251897931,
        1.973159670829773,
        -0.32655632495880127,
        -59.06997299194336
      ],
      [
        0.008098097518086433,
        0.32655906677246094,
        1.9731429815292358,
        -48.99201583862305
      ],
      [
        0.0,
        0.0,
        0.0,
        1.0
      ]
    ],
    "dcmmeta_reorient_transform": [
      [
        0.0,
        -1.0,
        0.0,
        95.0
      ],
      [
        1.0,
        0.0,
        0.0,
        0.0
      ],
      [
        0.0,
        0.0,
        1.0,
        0.0
      ],
      [
        0.0,
        0.0,
        0.0,
        1.0
      ]
    ],
    "dcmmeta_shape": [
      96,
      96,
      54,
      164
    ],
    "dcmmeta_slice_dim": 2,
    "dcmmeta_version": 0.6,
    "global": {
      "const": {
        "AcquisitionMatrix": [
          0,
          96,
          96,
          0
        ],
        "AngioFlag": "N",
        "BitsAllocated": 16,
        "BitsStored": 12,
        "BodyPartExamined": "HEAD",
        "Columns": 768,
        "EchoNumbers": 1,
        "EchoTime": 25.0,
        "EchoTrainLength": 1,
        "FlipAngle": 50.0,
        "HighBit": 11,
        "ImageOrientationPatient": [
          0.99999157803662,
          0.00067011969073,
          0.00404904870684,
          2.110094e-10,
          0.98657984636313,
          -0.1632795356133
        ],
        "ImagePositionPatient": [
          -767.761392775,
          -791.81217619987,
          89.033982358472
        ],
        "ImageType": [
          "ORIGINAL",
          "PRIMARY",
          "M",
          "ND",
          "ECHO_00",
          "MOSAIC"
        ],
        "ImagedNucleus": "1H",
        "ImagingFrequency": 297.205028,
        "InPlanePhaseEncodingDirection": "ROW",
        "LargestImagePixelValue": 4095,
        "MRAcquisitionType": "2D",
        "MagneticFieldStrength": 6.98,
        "Manufacturer": "SIEMENS",
        "ManufacturerModelName": "Investigational_Device_7T",
        "Modality": "MR",
        "NumberOfAverages": 1.0,
        "NumberOfPhaseEncodingSteps": 94,
        "PercentPhaseFieldOfView": 100.0,
        "PercentSampling": 100.0,
        "PerformedProcedureStepStartTime": "165316.806000",
        "PhotometricInterpretation": "MONOCHROME2",
        "PixelBandwidth": 2003.0,
        "PixelRepresentation": 0,
        "PixelSpacing": [
          2.0,
          2.0
        ],
        "PositionReferenceIndicator": "",
        "ProtocolName": "NIH_EPI_2.0iso_TR2_Run03b",
        "RepetitionTime": 2000.0,
        "Rows": 768,
        "SAR": 0.0742590412389,
        "SamplesPerPixel": 1,
        "ScanningSequence": "EP",
        "SequenceName": "epfid2d1_96",
        "SequenceVariant": "SK",
        "SeriesDescription": "NIH_EPI_2.0iso_TR2_Run03b",
        "SeriesNumber": 8,
        "SliceLocation": -38.296252698867,
        "SliceThickness": 2.0,
        "SmallestImagePixelValue": 0,
        "SoftwareVersions": "syngo MR B17",
        "SpacingBetweenSlices": 1.9999999532897,
        "TransmitCoilName": "32Ch_Head_7T",
        "VariableFlipAngleFlag": "N",
        "WindowCenterWidthExplanation": "Algo1",
        "dBdt": 0.0
      },
      "slices": {}
    },
    "modality": "bold",
    "run_id": 5,
    "session_id": "04",
    "subject_id": "001",
    "task_id": "HalfFovNoTask",
    "time": {
      "samples": {
        "AcquisitionNumber": [
          1,
          2,
          3,
          4,
          5,
          6,
          7,
          8,
          9,
          10,
          11,
          12,
          13,
          14,
          15,
          16,
          17,
          18,
          19,
          20,
          21,
          22,
          23,
          24,
          25,
          26,
          27,
          28,
          29,
          30,
          31,
          32,
          33,
          34,
          35,
          36,
          37,
          38,
          39,
          40,
          41,
          42,
          43,
          44,
          45,
          46,
          47,
          48,
          49,
          50,
          51,
          52,
          53,
          54,
          55,
          56,
          57,
          58,
          59,
          60,
          61,
          62,
          63,
          64,
          65,
          66,
          67,
          68,
          69,
          70,
          71,
          72,
          73,
          74,
          75,
          76,
          77,
          78,
          79,
          80,
          81,
          82,
          83,
          84,
          85,
          86,
          87,
          88,
          89,
          90,
          91,
          92,
          93,
          94,
          95,
          96,
          97,
          98,
          99,
          100,
          101,
          102,
          103,
          104,
          105,
          106,
          107,
          108,
          109,
          110,
          111,
          112,
          113,
          114,
          115,
          116,
          117,
          118,
          119,
          120,
          121,
          122,
          123,
          124,
          125,
          126,
          127,
          128,
          129,
          130,
          131,
          132,
          133,
          134,
          135,
          136,
          137,
          138,
          139,
          140,
          141,
          142,
          143,
          144,
          145,
          146,
          147,
          148,
          149,
          150,
          151,
          152,
          153,
          154,
          155,
          156,
          157,
          158,
          159,
          160,
          161,
          162,
          163,
          164
        ],
        "AcquisitionTime": [
          "174605.100000",
          "174609.115000",
          "174611.122500",
          "174613.132500",
          "174615.140000",
          "174617.147500",
          "174619.155000",
          "174621.162500",
          "174623.172500",
          "174625.180000",
          "174627.187500",
          "174629.195000",
          "174631.205000",
          "174633.212500",
          "174635.220000",
          "174637.227500",
          "174639.235000",
          "174641.245000",
          "174643.252500",
          "174645.260000",
          "174647.267500",
          "174649.275000",
          "174651.285000",
          "174653.292500",
          "174655.300000",
          "174657.307500",
          "174659.317500",
          "174701.325000",
          "174703.332500",
          "174705.340000",
          "174707.347500",
          "174709.357500",
          "174711.365000",
          "174713.372500",
          "174715.380000",
          "174717.387500",
          "174719.397500",
          "174721.405000",
          "174723.412500",
          "174725.420000",
          "174727.430000",
          "174729.437500",
          "174731.445000",
          "174733.452500",
          "174735.460000",
          "174737.470000",
          "174739.477500",
          "174741.485000",
          "174743.492500",
          "174745.500000",
          "174747.510000",
          "174749.517500",
          "174751.525000",
          "174753.532500",
          "174755.540000",
          "174757.550000",
          "174759.557500",
          "174801.565000",
          "174803.572500",
          "174805.582500",
          "174807.590000",
          "174809.597500",
          "174811.605000",
          "174813.612500",
          "174815.622500",
          "174817.630000",
          "174819.637500",
          "174821.645000",
          "174823.652500",
          "174825.662500",
          "174827.670000",
          "174829.677500",
          "174831.685000",
          "174833.695000",
          "174835.702500",
          "174837.710000",
          "174839.717500",
          "174841.725000",
          "174843.735000",
          "174845.742500",
          "174847.750000",
          "174849.757500",
          "174851.765000",
          "174853.775000",
          "174855.782500",
          "174857.790000",
          "174859.797500",
          "174901.807500",
          "174903.815000",
          "174905.822500",
          "174907.830000",
          "174909.837500",
          "174911.847500",
          "174913.855000",
          "174915.862500",
          "174917.870000",
          "174919.877500",
          "174921.887500",
          "174923.895000",
          "174925.902500",
          "174927.910000",
          "174929.917500",
          "174931.927500",
          "174933.935000",
          "174935.942500",
          "174937.950000",
          "174939.960000",
          "174941.967500",
          "174943.975000",
          "174945.982500",
          "174947.990000",
          "174950.000000",
          "174952.007500",
          "174954.015000",
          "174956.022500",
          "174958.030000",
          "175000.040000",
          "175002.047500",
          "175004.055000",
          "175006.062500",
          "175008.072500",
          "175010.080000",
          "175012.087500",
          "175014.095000",
          "175016.102500",
          "175018.112500",
          "175020.120000",
          "175022.127500",
          "175024.135000",
          "175026.142500",
          "175028.152500",
          "175030.160000",
          "175032.167500",
          "175034.175000",
          "175036.185000",
          "175038.192500",
          "175040.200000",
          "175042.207500",
          "175044.215000",
          "175046.225000",
          "175048.232500",
          "175050.240000",
          "175052.247500",
          "175054.255000",
          "175056.265000",
          "175058.272500",
          "175100.280000",
          "175102.287500",
          "175104.295000",
          "175106.305000",
          "175108.312500",
          "175110.320000",
          "175112.327500",
          "175114.337500",
          "175116.345000",
          "175118.352500",
          "175120.360000",
          "175122.367500",
          "175124.377500",
          "175126.385000",
          "175128.392500",
          "175130.400000",
          "175132.407500",
          "175134.417500"
        ],
        "ContentTime": [
          "174649.215000",
          "174649.231000",
          "174649.231000",
          "174649.231000",
          "174649.246000",
          "174649.246000",
          "174649.246000",
          "174649.246000",
          "174649.246000",
          "174649.246000",
          "174649.246000",
          "174649.262000",
          "174649.262000",
          "174649.262000",
          "174649.262000",
          "174649.262000",
          "174649.262000",
          "174649.262000",
          "174649.278000",
          "174649.278000",
          "174729.200000",
          "174729.200000",
          "174729.200000",
          "174729.200000",
          "174729.200000",
          "174729.216000",
          "174729.216000",
          "174729.216000",
          "174729.216000",
          "174729.231000",
          "174729.231000",
          "174729.231000",
          "174729.231000",
          "174729.231000",
          "174729.231000",
          "174729.247000",
          "174729.247000",
          "174729.247000",
          "174729.247000",
          "174729.247000",
          "174809.201000",
          "174809.201000",
          "174809.201000",
          "174809.201000",
          "174809.217000",
          "174809.217000",
          "174809.217000",
          "174809.232000",
          "174809.232000",
          "174809.232000",
          "174809.232000",
          "174809.232000",
          "174809.232000",
          "174809.248000",
          "174809.248000",
          "174809.248000",
          "174809.248000",
          "174809.248000",
          "174809.263000",
          "174809.263000",
          "174849.202000",
          "174849.202000",
          "174849.202000",
          "174849.202000",
          "174849.202000",
          "174849.217000",
          "174849.217000",
          "174849.217000",
          "174849.217000",
          "174849.217000",
          "174849.217000",
          "174849.217000",
          "174849.233000",
          "174849.233000",
          "174849.233000",
          "174849.233000",
          "174849.233000",
          "174849.233000",
          "174849.249000",
          "174849.249000",
          "174929.202000",
          "174929.202000",
          "174929.202000",
          "174929.202000",
          "174929.218000",
          "174929.218000",
          "174929.218000",
          "174929.218000",
          "174929.218000",
          "174929.234000",
          "174929.234000",
          "174929.234000",
          "174929.234000",
          "174929.234000",
          "174929.234000",
          "174929.249000",
          "174929.249000",
          "174929.249000",
          "174929.249000",
          "174929.249000",
          "175009.203000",
          "175009.203000",
          "175009.203000",
          "175009.203000",
          "175009.219000",
          "175009.219000",
          "175009.219000",
          "175009.234000",
          "175009.234000",
          "175009.234000",
          "175009.234000",
          "175009.234000",
          "175009.234000",
          "175009.250000",
          "175009.250000",
          "175009.250000",
          "175009.250000",
          "175009.250000",
          "175009.250000",
          "175009.250000",
          "175049.204000",
          "175049.204000",
          "175049.204000",
          "175049.204000",
          "175049.204000",
          "175049.220000",
          "175049.220000",
          "175049.220000",
          "175049.220000",
          "175049.220000",
          "175049.220000",
          "175049.220000",
          "175049.235000",
          "175049.235000",
          "175049.235000",
          "175049.235000",
          "175049.251000",
          "175049.251000",
          "175049.251000",
          "175049.251000",
          "175129.205000",
          "175129.205000",
          "175129.205000",
          "175129.205000",
          "175129.205000",
          "175129.220000",
          "175129.220000",
          "175129.220000",
          "175129.220000",
          "175129.220000",
          "175129.220000",
          "175129.220000",
          "175129.236000",
          "175129.236000",
          "175129.236000",
          "175129.236000",
          "175129.236000",
          "175129.236000",
          "175129.252000",
          "175129.252000",
          "175136.551000",
          "175136.567000",
          "175136.567000",
          "175136.567000"
        ],
        "InstanceCreationTime": [
          "174649.215000",
          "174649.231000",
          "174649.231000",
          "174649.231000",
          "174649.246000",
          "174649.246000",
          "174649.246000",
          "174649.246000",
          "174649.246000",
          "174649.246000",
          "174649.246000",
          "174649.262000",
          "174649.262000",
          "174649.262000",
          "174649.262000",
          "174649.262000",
          "174649.262000",
          "174649.262000",
          "174649.278000",
          "174649.278000",
          "174729.200000",
          "174729.200000",
          "174729.200000",
          "174729.200000",
          "174729.200000",
          "174729.216000",
          "174729.216000",
          "174729.216000",
          "174729.216000",
          "174729.231000",
          "174729.231000",
          "174729.231000",
          "174729.231000",
          "174729.231000",
          "174729.231000",
          "174729.247000",
          "174729.247000",
          "174729.247000",
          "174729.247000",
          "174729.247000",
          "174809.201000",
          "174809.201000",
          "174809.201000",
          "174809.201000",
          "174809.217000",
          "174809.217000",
          "174809.217000",
          "174809.232000",
          "174809.232000",
          "174809.232000",
          "174809.232000",
          "174809.232000",
          "174809.232000",
          "174809.248000",
          "174809.248000",
          "174809.248000",
          "174809.248000",
          "174809.248000",
          "174809.263000",
          "174809.263000",
          "174849.202000",
          "174849.202000",
          "174849.202000",
          "174849.202000",
          "174849.202000",
          "174849.217000",
          "174849.217000",
          "174849.217000",
          "174849.217000",
          "174849.217000",
          "174849.217000",
          "174849.217000",
          "174849.233000",
          "174849.233000",
          "174849.233000",
          "174849.233000",
          "174849.233000",
          "174849.233000",
          "174849.249000",
          "174849.249000",
          "174929.202000",
          "174929.202000",
          "174929.202000",
          "174929.202000",
          "174929.218000",
          "174929.218000",
          "174929.218000",
          "174929.218000",
          "174929.218000",
          "174929.234000",
          "174929.234000",
          "174929.234000",
          "174929.234000",
          "174929.234000",
          "174929.234000",
          "174929.249000",
          "174929.249000",
          "174929.249000",
          "174929.249000",
          "174929.249000",
          "175009.203000",
          "175009.203000",
          "175009.203000",
          "175009.203000",
          "175009.219000",
          "175009.219000",
          "175009.219000",
          "175009.234000",
          "175009.234000",
          "175009.234000",
          "175009.234000",
          "175009.234000",
          "175009.234000",
          "175009.250000",
          "175009.250000",
          "175009.250000",
          "175009.250000",
          "175009.250000",
          "175009.250000",
          "175009.250000",
          "175049.204000",
          "175049.204000",
          "175049.204000",
          "175049.204000",
          "175049.204000",
          "175049.220000",
          "175049.220000",
          "175049.220000",
          "175049.220000",
          "175049.220000",
          "175049.220000",
          "175049.220000",
          "175049.235000",
          "175049.235000",
          "175049.235000",
          "175049.235000",
          "175049.251000",
          "175049.251000",
          "175049.251000",
          "175049.251000",
          "175129.205000",
          "175129.205000",
          "175129.205000",
          "175129.205000",
          "175129.205000",
          "175129.220000",
          "175129.220000",
          "175129.220000",
          "175129.220000",
          "175129.220000",
          "175129.220000",
          "175129.220000",
          "175129.236000",
          "175129.236000",
          "175129.236000",
          "175129.236000",
          "175129.236000",
          "175129.236000",
          "175129.252000",
          "175129.252000",
          "175136.551000",
          "175136.567000",
          "175136.567000",
          "175136.567000"
        ],
        "InstanceNumber": [
          1,
          2,
          3,
          4,
          5,
          6,
          7,
          8,
          9,
          10,
          11,
          12,
          13,
          14,
          15,
          16,
          17,
          18,
          19,
          20,
          21,
          22,
          23,
          24,
          25,
          26,
          27,
          28,
          29,
          30,
          31,
          32,
          33,
          34,
          35,
          36,
          37,
          38,
          39,
          40,
          41,
          42,
          43,
          44,
          45,
          46,
          47,
          48,
          49,
          50,
          51,
          52,
          53,
          54,
          55,
          56,
          57,
          58,
          59,
          60,
          61,
          62,
          63,
          64,
          65,
          66,
          67,
          68,
          69,
          70,
          71,
          72,
          73,
          74,
          75,
          76,
          77,
          78,
          79,
          80,
          81,
          82,
          83,
          84,
          85,
          86,
          87,
          88,
          89,
          90,
          91,
          92,
          93,
          94,
          95,
          96,
          97,
          98,
          99,
          100,
          101,
          102,
          103,
          104,
          105,
          106,
          107,
          108,
          109,
          110,
          111,
          112,
          113,
          114,
          115,
          116,
          117,
          118,
          119,
          120,
          121,
          122,
          123,
          124,
          125,
          126,
          127,
          128,
          129,
          130,
          131,
          132,
          133,
          134,
          135,
          136,
          137,
          138,
          139,
          140,
          141,
          142,
          143,
          144,
          145,
          146,
          147,
          148,
          149,
          150,
          151,
          152,
          153,
          154,
          155,
          156,
          157,
          158,
          159,
          160,
          161,
          162,
          163,
          164
        ],
        "WindowCenter": [
          1172.0,
          1170.0,
          1172.0,
          1176.0,
          1177.0,
          1174.0,
          1174.0,
          1176.0,
          1175.0,
          1175.0,
          1174.0,
          1173.0,
          1173.0,
          1172.0,
          1171.0,
          1170.0,
          1171.0,
          1174.0,
          1174.0,
          1172.0,
          1172.0,
          1173.0,
          1175.0,
          1177.0,
          1176.0,
          1175.0,
          1176.0,
          1176.0,
          1174.0,
          1173.0,
          1173.0,
          1172.0,
          1173.0,
          1173.0,
          1175.0,
          1175.0,
          1175.0,
          1173.0,
          1171.0,
          1170.0,
          1170.0,
          1171.0,
          1173.0,
          1174.0,
          1175.0,
          1175.0,
          1174.0,
          1174.0,
          1173.0,
          1172.0,
          1172.0,
          1174.0,
          1174.0,
          1174.0,
          1177.0,
          1175.0,
          1172.0,
          1171.0,
          1172.0,
          1172.0,
          1171.0,
          1173.0,
          1174.0,
          1172.0,
          1171.0,
          1171.0,
          1173.0,
          1176.0,
          1175.0,
          1173.0,
          1173.0,
          1176.0,
          1176.0,
          1177.0,
          1178.0,
          1178.0,
          1178.0,
          1178.0,
          1180.0,
          1179.0,
          1177.0,
          1174.0,
          1173.0,
          1174.0,
          1173.0,
          1172.0,
          1171.0,
          1172.0,
          1171.0,
          1171.0,
          1172.0,
          1171.0,
          1171.0,
          1173.0,
          1173.0,
          1173.0,
          1174.0,
          1175.0,
          1175.0,
          1175.0,
          1176.0,
          1178.0,
          1176.0,
          1175.0,
          1175.0,
          1175.0,
          1176.0,
          1176.0,
          1174.0,
          1175.0,
          1176.0,
          1174.0,
          1174.0,
          1176.0,
          1176.0,
          1176.0,
          1177.0,
          1175.0,
          1177.0,
          1177.0,
          1175.0,
          1173.0,
          1172.0,
          1172.0,
          1173.0,
          1175.0,
          1174.0,
          1174.0,
          1175.0,
          1174.0,
          1173.0,
          1174.0,
          1177.0,
          1177.0,
          1174.0,
          1173.0,
          1173.0,
          1174.0,
          1176.0,
          1175.0,
          1174.0,
          1174.0,
          1173.0,
          1174.0,
          1174.0,
          1176.0,
          1178.0,
          1178.0,
          1177.0,
          1177.0,
          1177.0,
          1180.0,
          1179.0,
          1176.0,
          1174.0,
          1176.0,
          1178.0,
          1178.0,
          1176.0,
          1175.0,
          1175.0,
          1176.0,
          1175.0,
          1174.0
        ],
        "WindowWidth": [
          2809.0,
          2808.0,
          2820.0,
          2827.0,
          2826.0,
          2821.0,
          2820.0,
          2824.0,
          2823.0,
          2820.0,
          2819.0,
          2815.0,
          2814.0,
          2812.0,
          2808.0,
          2807.0,
          2814.0,
          2819.0,
          2816.0,
          2814.0,
          2814.0,
          2818.0,
          2823.0,
          2826.0,
          2823.0,
          2821.0,
          2824.0,
          2822.0,
          2819.0,
          2817.0,
          2815.0,
          2815.0,
          2816.0,
          2819.0,
          2822.0,
          2826.0,
          2822.0,
          2815.0,
          2811.0,
          2807.0,
          2807.0,
          2809.0,
          2815.0,
          2821.0,
          2822.0,
          2822.0,
          2821.0,
          2819.0,
          2815.0,
          2814.0,
          2816.0,
          2818.0,
          2820.0,
          2821.0,
          2825.0,
          2819.0,
          2813.0,
          2812.0,
          2812.0,
          2812.0,
          2812.0,
          2815.0,
          2818.0,
          2813.0,
          2809.0,
          2812.0,
          2820.0,
          2821.0,
          2817.0,
          2813.0,
          2817.0,
          2822.0,
          2823.0,
          2824.0,
          2826.0,
          2827.0,
          2826.0,
          2829.0,
          2833.0,
          2830.0,
          2823.0,
          2817.0,
          2815.0,
          2814.0,
          2813.0,
          2809.0,
          2807.0,
          2808.0,
          2807.0,
          2808.0,
          2808.0,
          2807.0,
          2811.0,
          2814.0,
          2816.0,
          2815.0,
          2818.0,
          2818.0,
          2818.0,
          2819.0,
          2823.0,
          2824.0,
          2819.0,
          2814.0,
          2816.0,
          2820.0,
          2820.0,
          2819.0,
          2818.0,
          2817.0,
          2817.0,
          2814.0,
          2813.0,
          2819.0,
          2822.0,
          2820.0,
          2818.0,
          2817.0,
          2825.0,
          2823.0,
          2817.0,
          2814.0,
          2811.0,
          2809.0,
          2812.0,
          2816.0,
          2814.0,
          2815.0,
          2818.0,
