{
  "aor": 0.002406768292682927,
  "aqi": 0.0058919997560975615,
  "bids_meta": {
    "AcquisitionMatrixPE": 96,
    "AcquisitionNumber": 1,
    "AcquisitionTime": "18:40:46.087500",
    "BandwidthPerPixelPhaseEncode": 52.083,
    "BaseResolution": 96,
    "BodyPartExamined": "HEAD",
    "ConversionSoftware": "dcm2niix",
    "ConversionSoftwareVersion": "v1.0.20180622 GCC6.3.0",
    "DerivedVendorReportedEchoSpacing": 0.000600004,
    "DeviceSerialNumber": "18926",
    "DwellTime": 2.6e-06,
    "EchoTime": 0.025,
    "EffectiveEchoSpacing": 0.000200001,
    "FlipAngle": 50,
    "ImageOrientationPatientDICOM": [
      0.999992,
      0.00067012,
      0.00404905,
      2.11009e-10,
      0.98658,
      -0.16328
    ],
    "ImageType": [
      "ORIGINAL",
      "PRIMARY",
      "M",
      "ND",
      "ECHO",
      "00",
      "MOSAIC"
    ],
    "InPlanePhaseEncodingDirectionDICOM": "ROW",
    "InstitutionName": "NIMH",
    "InstitutionalDepartmentName": "Department",
    "MRAcquisitionType": "2D",
    "MagneticFieldStrength": 6.98,
    "Manufacturer": "Siemens",
    "ManufacturersModelName": "Investigational_Device_7T",
    "Modality": "MR",
    "ParallelReductionFactorInPlane": 3,
    "PartialFourier": 1,
    "PatientPosition": "HFS",
    "PercentPhaseFOV": 100,
    "PhaseEncodingDirection": "i",
    "PhaseEncodingSteps": 94,
    "PhaseResolution": 1,
    "PixelBandwidth": 2003,
    "ProcedureStepDescription": "UserProtocols_gonzalez",
    "ProtocolName": "NIH_EPI_2.0iso_TR2_Run11",
    "PulseSequenceDetails": "%CustomerSeq%_inati_nih_epi",
    "ReceiveCoilName": "32Ch_Head_7T",
    "ReconMatrixPE": 96,
    "RepetitionTime": 2,
    "SAR": 0.074259,
    "ScanningSequence": "EP",
    "SequenceName": "epfid2d1_96",
    "SequenceVariant": "SK",
    "SeriesDescription": "NIH_EPI_2.0iso_TR2_Run11",
    "SeriesNumber": 16,
    "ShimSetting": [
      -67,
      220,
      792,
      820,
      -178,
      639,
      -147,
      -424
    ],
    "SliceThickness": 2,
    "SliceTiming": [
      1.005,
      0,
      1.04,
      0.0375,
      1.0775,
      0.075,
      1.115,
      0.1125,
      1.1525,
      0.15,
      1.19,
      0.185,
      1.2275,
      0.2225,
      1.265,
      0.26,
      1.3025,
      0.2975,
      1.3375,
      0.335,
      1.375,
      0.3725,
      1.4125,
      0.41,
      1.45,
      0.4475,
      1.4875,
      0.4825,
      1.525,
      0.52,
      1.5625,
      0.5575,
      1.6,
      0.595,
      1.635,
      0.6325,
      1.6725,
      0.67,
      1.71,
      0.7075,
      1.7475,
      0.7425,
      1.785,
      0.78,
      1.8225,
      0.8175,
      1.86,
      0.855,
      1.895,
      0.8925,
      1.9325,
      0.93,
      1.97,
      0.9675
    ],
    "SoftwareVersions": "syngo_MR_B17",
    "SpacingBetweenSlices": 2,
    "StationName": "FMRIFD7T",
    "TaskName": "HalfFovNoTask",
    "TotalReadoutTime": 0.0190001,
    "TxRefAmp": 310,
    "dataset": "ds001555",
    "dcmmeta_affine": [
      [
        -1.9999831914901733,
        4.2201880878778297e-10,
        0.008208253420889378,
        95.76705169677734
      ],
      [
        -0.0013402394251897931,
        1.973159670829773,
        -0.32655632495880127,
        -59.06997299194336
      ],
      [
        0.008098097518086433,
        0.32655906677246094,
        1.9731429815292358,
        -48.99201583862305
      ],
      [
        0.0,
        0.0,
        0.0,
        1.0
      ]
    ],
    "dcmmeta_reorient_transform": [
      [
        0.0,
        -1.0,
        0.0,
        95.0
      ],
      [
        1.0,
        0.0,
        0.0,
        0.0
      ],
      [
        0.0,
        0.0,
        1.0,
        0.0
      ],
      [
        0.0,
        0.0,
        0.0,
        1.0
      ]
    ],
    "dcmmeta_shape": [
      96,
      96,
      54,
      164
    ],
    "dcmmeta_slice_dim": 2,
    "dcmmeta_version": 0.6,
    "global": {
      "const": {
        "AcquisitionMatrix": [
          0,
          96,
          96,
          0
        ],
        "AngioFlag": "N",
        "BitsAllocated": 16,
        "BitsStored": 12,
        "BodyPartExamined": "HEAD",
        "Columns": 768,
        "EchoNumbers": 1,
        "EchoTime": 25.0,
        "EchoTrainLength": 1,
        "FlipAngle": 50.0,
        "HighBit": 11,
        "ImageOrientationPatient": [
          0.99999157803662,
          0.00067011969073,
          0.00404904870684,
          2.110094e-10,
          0.98657984636313,
          -0.1632795356133
        ],
        "ImagePositionPatient": [
          -767.761392775,
          -791.81217619987,
          89.033982358472
        ],
        "ImageType": [
          "ORIGINAL",
          "PRIMARY",
          "M",
          "ND",
          "ECHO_00",
          "MOSAIC"
        ],
        "ImagedNucleus": "1H",
        "ImagingFrequency": 297.205202,
        "InPlanePhaseEncodingDirection": "ROW",
        "LargestImagePixelValue": 4095,
        "MRAcquisitionType": "2D",
        "MagneticFieldStrength": 6.98,
        "Manufacturer": "SIEMENS",
        "ManufacturerModelName": "Investigational_Device_7T",
        "Modality": "MR",
        "NumberOfAverages": 1.0,
        "NumberOfPhaseEncodingSteps": 94,
        "PercentPhaseFieldOfView": 100.0,
        "PercentSampling": 100.0,
        "PerformedProcedureStepStartTime": "165316.806000",
        "PhotometricInterpretation": "MONOCHROME2",
        "PixelBandwidth": 2003.0,
        "PixelRepresentation": 0,
        "PixelSpacing": [
          2.0,
          2.0
        ],
        "PositionReferenceIndicator": "",
        "ProtocolName": "NIH_EPI_2.0iso_TR2_Run11",
        "RepetitionTime": 2000.0,
        "Rows": 768,
        "SAR": 0.0742590412389,
        "SamplesPerPixel": 1,
        "ScanningSequence": "EP",
        "SequenceName": "epfid2d1_96",
        "SequenceVariant": "SK",
        "SeriesDescription": "NIH_EPI_2.0iso_TR2_Run11",
        "SeriesNumber": 16,
        "SliceLocation": -38.296252698867,
        "SliceThickness": 2.0,
        "SmallestImagePixelValue": 0,
        "SoftwareVersions": "syngo MR B17",
        "SpacingBetweenSlices": 1.9999999532897,
        "TransmitCoilName": "32Ch_Head_7T",
        "VariableFlipAngleFlag": "N",
        "WindowCenterWidthExplanation": "Algo1",
        "dBdt": 0.0
      },
      "slices": {}
    },
    "modality": "bold",
    "run_id": 13,
    "session_id": "04",
    "subject_id": "001",
    "task_id": "HalfFovNoTask",
    "time": {
      "samples": {
        "AcquisitionNumber": [
          1,
          2,
          3,
          4,
          5,
          6,
          7,
          8,
          9,
          10,
          11,
          12,
          13,
          14,
          15,
          16,
          17,
          18,
          19,
          20,
          21,
          22,
          23,
          24,
          25,
          26,
          27,
          28,
          29,
          30,
          31,
          32,
          33,
          34,
          35,
          36,
          37,
          38,
          39,
          40,
          41,
          42,
          43,
          44,
          45,
          46,
          47,
          48,
          49,
          50,
          51,
          52,
          53,
          54,
          55,
          56,
          57,
          58,
          59,
          60,
          61,
          62,
          63,
          64,
          65,
          66,
          67,
          68,
          69,
          70,
          71,
          72,
          73,
          74,
          75,
          76,
          77,
          78,
          79,
          80,
          81,
          82,
          83,
          84,
          85,
          86,
          87,
          88,
          89,
          90,
          91,
          92,
          93,
          94,
          95,
          96,
          97,
          98,
          99,
          100,
          101,
          102,
          103,
          104,
          105,
          106,
          107,
          108,
          109,
          110,
          111,
          112,
          113,
          114,
          115,
          116,
          117,
          118,
          119,
          120,
          121,
          122,
          123,
          124,
          125,
          126,
          127,
          128,
          129,
          130,
          131,
          132,
          133,
          134,
          135,
          136,
          137,
          138,
          139,
          140,
          141,
          142,
          143,
          144,
          145,
          146,
          147,
          148,
          149,
          150,
          151,
          152,
          153,
          154,
          155,
          156,
          157,
          158,
          159,
          160,
          161,
          162,
          163,
          164
        ],
        "AcquisitionTime": [
          "184046.087500",
          "184050.102500",
          "184052.110000",
          "184054.117500",
          "184056.127500",
          "184058.135000",
          "184100.142500",
          "184102.150000",
          "184104.157500",
          "184106.167500",
          "184108.175000",
          "184110.182500",
          "184112.190000",
          "184114.200000",
          "184116.207500",
          "184118.215000",
          "184120.222500",
          "184122.230000",
          "184124.240000",
          "184126.247500",
          "184128.255000",
          "184130.262500",
          "184132.270000",
          "184134.280000",
          "184136.287500",
          "184138.295000",
          "184140.302500",
          "184142.312500",
          "184144.320000",
          "184146.327500",
          "184148.335000",
          "184150.342500",
          "184152.352500",
          "184154.360000",
          "184156.367500",
          "184158.375000",
          "184200.382500",
          "184202.392500",
          "184204.400000",
          "184206.407500",
          "184208.415000",
          "184210.425000",
          "184212.432500",
          "184214.440000",
          "184216.447500",
          "184218.455000",
          "184220.465000",
          "184222.472500",
          "184224.480000",
          "184226.487500",
          "184228.495000",
          "184230.505000",
          "184232.512500",
          "184234.520000",
          "184236.527500",
          "184238.535000",
          "184240.545000",
          "184242.552500",
          "184244.560000",
          "184246.567500",
          "184248.577500",
          "184250.585000",
          "184252.592500",
          "184254.600000",
          "184256.607500",
          "184258.617500",
          "184300.625000",
          "184302.632500",
          "184304.640000",
          "184306.647500",
          "184308.657500",
          "184310.665000",
          "184312.672500",
          "184314.680000",
          "184316.690000",
          "184318.697500",
          "184320.705000",
          "184322.712500",
          "184324.720000",
          "184326.730000",
          "184328.737500",
          "184330.745000",
          "184332.752500",
          "184334.760000",
          "184336.770000",
          "184338.777500",
          "184340.785000",
          "184342.792500",
          "184344.802500",
          "184346.810000",
          "184348.817500",
          "184350.825000",
          "184352.832500",
          "184354.842500",
          "184356.850000",
          "184358.857500",
          "184400.865000",
          "184402.872500",
          "184404.882500",
          "184406.890000",
          "184408.897500",
          "184410.905000",
          "184412.912500",
          "184414.922500",
          "184416.930000",
          "184418.937500",
          "184420.945000",
          "184422.955000",
          "184424.962500",
          "184426.970000",
          "184428.977500",
          "184430.985000",
          "184432.995000",
          "184435.002500",
          "184437.010000",
          "184439.017500",
          "184441.025000",
          "184443.035000",
          "184445.042500",
          "184447.050000",
          "184449.057500",
          "184451.067500",
          "184453.075000",
          "184455.082500",
          "184457.090000",
          "184459.097500",
          "184501.107500",
          "184503.115000",
          "184505.122500",
          "184507.130000",
          "184509.137500",
          "184511.147500",
          "184513.155000",
          "184515.162500",
          "184517.170000",
          "184519.180000",
          "184521.187500",
          "184523.195000",
          "184525.202500",
          "184527.210000",
          "184529.220000",
          "184531.227500",
          "184533.235000",
          "184535.242500",
          "184537.250000",
          "184539.260000",
          "184541.267500",
          "184543.275000",
          "184545.282500",
          "184547.292500",
          "184549.300000",
          "184551.307500",
          "184553.315000",
          "184555.322500",
          "184557.332500",
          "184559.340000",
          "184601.347500",
          "184603.355000",
          "184605.362500",
          "184607.372500",
          "184609.380000",
          "184611.387500",
          "184613.395000",
          "184615.402500"
        ],
        "ContentTime": [
          "184149.645000",
          "184149.645000",
          "184149.645000",
          "184149.660000",
          "184149.660000",
          "184149.660000",
          "184149.660000",
          "184149.660000",
          "184149.660000",
          "184149.660000",
          "184149.676000",
          "184149.676000",
          "184149.676000",
          "184149.691000",
          "184149.691000",
          "184149.691000",
          "184149.691000",
          "184149.691000",
          "184149.707000",
          "184149.707000",
          "184149.707000",
          "184149.707000",
          "184149.707000",
          "184149.707000",
          "184149.707000",
          "184149.723000",
          "184149.723000",
          "184149.723000",
          "184149.723000",
          "184229.630000",
          "184229.630000",
          "184229.630000",
          "184229.645000",
          "184229.645000",
          "184229.645000",
          "184229.645000",
          "184229.645000",
          "184229.645000",
          "184229.645000",
          "184229.661000",
          "184229.661000",
          "184229.661000",
          "184229.661000",
          "184229.661000",
          "184229.661000",
          "184229.661000",
          "184229.677000",
          "184229.677000",
          "184229.677000",
          "184309.630000",
          "184309.630000",
          "184309.630000",
          "184309.630000",
          "184309.630000",
          "184309.646000",
          "184309.646000",
          "184309.646000",
          "184309.646000",
          "184309.646000",
          "184309.646000",
          "184309.646000",
          "184309.662000",
          "184309.662000",
          "184309.662000",
          "184309.662000",
          "184309.662000",
          "184309.662000",
          "184309.662000",
          "184309.677000",
          "184329.639000",
          "184329.639000",
          "184329.639000",
          "184329.639000",
          "184329.639000",
          "184329.654000",
          "184329.654000",
          "184329.654000",
          "184329.654000",
          "184329.654000",
          "184409.624000",
          "184409.624000",
          "184409.624000",
          "184409.624000",
          "184409.639000",
          "184409.639000",
          "184409.639000",
          "184409.639000",
          "184409.655000",
          "184409.655000",
          "184409.655000",
          "184409.671000",
          "184409.671000",
          "184409.671000",
          "184409.671000",
          "184409.686000",
          "184409.686000",
          "184409.686000",
          "184409.686000",
          "184409.686000",
          "184449.624000",
          "184449.624000",
          "184449.624000",
          "184449.624000",
          "184449.624000",
          "184449.640000",
          "184449.640000",
          "184449.640000",
          "184449.656000",
          "184449.656000",
          "184449.656000",
          "184449.656000",
          "184449.656000",
          "184449.656000",
          "184449.671000",
          "184449.671000",
          "184449.671000",
          "184449.671000",
          "184449.671000",
          "184449.671000",
          "184529.625000",
          "184529.625000",
          "184529.625000",
          "184529.625000",
          "184529.641000",
          "184529.641000",
          "184529.641000",
          "184529.641000",
          "184529.641000",
          "184529.641000",
          "184529.641000",
          "184529.656000",
          "184529.656000",
          "184529.656000",
          "184529.656000",
          "184529.656000",
          "184529.656000",
          "184529.656000",
          "184529.672000",
          "184529.672000",
          "184609.642000",
          "184609.642000",
          "184609.642000",
          "184609.642000",
          "184609.642000",
          "184609.642000",
          "184609.642000",
          "184609.657000",
          "184609.657000",
          "184609.657000",
          "184609.657000",
          "184609.673000",
          "184609.673000",
          "184609.673000",
          "184609.673000",
          "184609.673000",
          "184609.673000",
          "184609.673000",
          "184609.688000",
          "184609.688000",
          "184618.864000",
          "184618.864000",
          "184618.864000",
          "184618.880000",
          "184618.880000"
        ],
        "InstanceCreationTime": [
          "184149.645000",
          "184149.645000",
          "184149.645000",
          "184149.660000",
          "184149.660000",
          "184149.660000",
          "184149.660000",
          "184149.660000",
          "184149.660000",
          "184149.660000",
          "184149.676000",
          "184149.676000",
          "184149.676000",
          "184149.691000",
          "184149.691000",
          "184149.691000",
          "184149.691000",
          "184149.691000",
          "184149.707000",
          "184149.707000",
          "184149.707000",
          "184149.707000",
          "184149.707000",
          "184149.707000",
          "184149.707000",
          "184149.723000",
          "184149.723000",
          "184149.723000",
          "184149.723000",
          "184229.630000",
          "184229.630000",
          "184229.630000",
          "184229.645000",
          "184229.645000",
          "184229.645000",
          "184229.645000",
          "184229.645000",
          "184229.645000",
          "184229.645000",
          "184229.661000",
          "184229.661000",
          "184229.661000",
          "184229.661000",
          "184229.661000",
          "184229.661000",
          "184229.661000",
          "184229.677000",
          "184229.677000",
          "184229.677000",
          "184309.630000",
          "184309.630000",
          "184309.630000",
          "184309.630000",
          "184309.630000",
          "184309.646000",
          "184309.646000",
          "184309.646000",
          "184309.646000",
          "184309.646000",
          "184309.646000",
          "184309.646000",
          "184309.662000",
          "184309.662000",
          "184309.662000",
          "184309.662000",
          "184309.662000",
          "184309.662000",
          "184309.662000",
          "184309.677000",
          "184329.639000",
          "184329.639000",
          "184329.639000",
          "184329.639000",
          "184329.639000",
          "184329.654000",
          "184329.654000",
          "184329.654000",
          "184329.654000",
          "184329.654000",
          "184409.624000",
          "184409.624000",
          "184409.624000",
          "184409.624000",
          "184409.639000",
          "184409.639000",
          "184409.639000",
          "184409.639000",
          "184409.655000",
          "184409.655000",
          "184409.655000",
          "184409.671000",
          "184409.671000",
          "184409.671000",
          "184409.671000",
          "184409.686000",
          "184409.686000",
          "184409.686000",
          "184409.686000",
          "184409.686000",
          "184449.624000",
          "184449.624000",
          "184449.624000",
          "184449.624000",
          "184449.624000",
          "184449.640000",
          "184449.640000",
          "184449.640000",
          "184449.656000",
          "184449.656000",
          "184449.656000",
          "184449.656000",
          "184449.656000",
          "184449.656000",
          "184449.671000",
          "184449.671000",
          "184449.671000",
          "184449.671000",
          "184449.671000",
          "184449.671000",
          "184529.625000",
          "184529.625000",
          "184529.625000",
          "184529.625000",
          "184529.641000",
          "184529.641000",
          "184529.641000",
          "184529.641000",
          "184529.641000",
          "184529.641000",
          "184529.641000",
          "184529.656000",
          "184529.656000",
          "184529.656000",
          "184529.656000",
          "184529.656000",
          "184529.656000",
          "184529.656000",
          "184529.672000",
          "184529.672000",
          "184609.642000",
          "184609.642000",
          "184609.642000",
          "184609.642000",
          "184609.642000",
          "184609.642000",
          "184609.642000",
          "184609.657000",
          "184609.657000",
          "184609.657000",
          "184609.657000",
          "184609.673000",
          "184609.673000",
          "184609.673000",
          "184609.673000",
          "184609.673000",
          "184609.673000",
          "184609.673000",
          "184609.688000",
          "184609.688000",
          "184618.864000",
          "184618.864000",
          "184618.864000",
          "184618.880000",
          "184618.880000"
        ],
        "InstanceNumber": [
          1,
          2,
          3,
          4,
          5,
          6,
          7,
          8,
          9,
          10,
          11,
          12,
          13,
          14,
          15,
          16,
          17,
          18,
          19,
          20,
          21,
          22,
          23,
          24,
          25,
          26,
          27,
          28,
          29,
          30,
          31,
          32,
          33,
          34,
          35,
          36,
          37,
          38,
          39,
          40,
          41,
          42,
          43,
          44,
          45,
          46,
          47,
          48,
          49,
          50,
          51,
          52,
          53,
          54,
          55,
          56,
          57,
          58,
          59,
          60,
          61,
          62,
          63,
          64,
          65,
          66,
          67,
          68,
          69,
          70,
          71,
          72,
          73,
          74,
          75,
          76,
          77,
          78,
          79,
          80,
          81,
          82,
          83,
          84,
          85,
          86,
          87,
          88,
          89,
          90,
          91,
          92,
          93,
          94,
          95,
          96,
          97,
          98,
          99,
          100,
          101,
          102,
          103,
          104,
          105,
          106,
          107,
          108,
          109,
          110,
          111,
          112,
          113,
          114,
          115,
          116,
          117,
          118,
          119,
          120,
          121,
          122,
          123,
          124,
          125,
          126,
          127,
          128,
          129,
          130,
          131,
          132,
          133,
          134,
          135,
          136,
          137,
          138,
          139,
          140,
          141,
          142,
          143,
          144,
          145,
          146,
          147,
          148,
          149,
          150,
          151,
          152,
          153,
          154,
          155,
          156,
          157,
          158,
          159,
          160,
          161,
          162,
          163,
          164
        ],
        "WindowCenter": [
          1179.0,
          1176.0,
          1175.0,
          1175.0,
          1173.0,
          1173.0,
          1173.0,
          1173.0,
          1171.0,
          1171.0,
          1172.0,
          1174.0,
          1175.0,
          1174.0,
          1175.0,
          1177.0,
          1178.0,
          1177.0,
          1176.0,
          1175.0,
          1176.0,
          1178.0,
          1180.0,
          1178.0,
          1174.0,
          1174.0,
          1176.0,
          1176.0,
          1176.0,
          1175.0,
          1176.0,
          1177.0,
          1177.0,
          1176.0,
          1176.0,
          1176.0,
          1177.0,
          1177.0,
          1177.0,
          1176.0,
          1176.0,
          1175.0,
          1177.0,
          1178.0,
          1176.0,
          1177.0,
          1176.0,
          1175.0,
          1175.0,
          1176.0,
          1178.0,
          1179.0,
          1181.0,
          1180.0,
          1177.0,
          1177.0,
          1180.0,
          1182.0,
          1178.0,
          1175.0,
          1177.0,
          1177.0,
          1175.0,
          1172.0,
          1171.0,
          1171.0,
          1169.0,
          1170.0,
          1171.0,
          1171.0,
          1173.0,
          1176.0,
          1177.0,
          1177.0,
          1177.0,
          1176.0,
          1178.0,
          1178.0,
          1174.0,
          1172.0,
          1171.0,
          1174.0,
          1176.0,
          1176.0,
          1174.0,
          1173.0,
          1175.0,
          1177.0,
          1177.0,
          1176.0,
          1177.0,
          1179.0,
          1179.0,
          1181.0,
          1184.0,
          1183.0,
          1178.0,
          1176.0,
          1174.0,
          1173.0,
          1173.0,
          1172.0,
          1171.0,
          1170.0,
          1169.0,
          1168.0,
          1168.0,
          1170.0,
          1171.0,
          1171.0,
          1172.0,
          1173.0,
          1174.0,
          1172.0,
          1172.0,
          1175.0,
          1176.0,
          1176.0,
          1176.0,
          1176.0,
          1177.0,
          1178.0,
          1178.0,
          1176.0,
          1174.0,
          1174.0,
          1176.0,
          1174.0,
          1171.0,
          1171.0,
          1169.0,
          1167.0,
          1167.0,
          1168.0,
          1170.0,
          1172.0,
          1177.0,
          1181.0,
          1179.0,
          1179.0,
          1178.0,
          1179.0,
          1179.0,
          1179.0,
          1177.0,
          1176.0,
          1176.0,
          1175.0,
          1174.0,
          1174.0,
          1174.0,
          1174.0,
          1176.0,
          1177.0,
          1178.0,
          1178.0,
          1178.0,
          1177.0,
          1177.0,
          1176.0,
          1177.0,
          1177.0,
          1179.0,
          1180.0
        ],
        "WindowWidth": [
          2817.0,
          2813.0,
          2810.0,
          2806.0,
          2803.0,
          2802.0,
          2807.0,
          2806.0,
          2802.0,
          2800.0,
          2802.0,
          2806.0,
          2808.0,
          2808.0,
          2812.0,
          2818.0,
          2820.0,
          2817.0,
          2814.0,
          2812.0,
          2812.0,
          2822.0,
          2826.0,
          2815.0,
          2807.0,
          2813.0,
          2818.0,
          2818.0,
          2814.0,
          2811.0,
          2815.0,
          2818.0,
          2815.0,
          2815.0,
          2814.0,
          2815.0,
          2819.0,
          2817.0,
          2816.0,
          2813.0,
          2812.0,
          2813.0,
          2816.0,
          2816.0,
          2814.0,
          2813.0,
          2811.0,
          2813.0,
          2815.0,
          2817.0,
          2821.0,
          2823.0,
          2826.0,
          2821.0,
          2815.0,
          2819.0,
          2828.0,
          2828.0,
          2812.0,
          2811.0,
          2813.0,
          2813.0,
          2807.0,
          2799.0,
          2797.0,
          2796.0,
          2795.0,
          2798.0,
          2802.0,
          2805.0,
          2807.0,
          2812.0,
          2814.0,
          2811.0,
          2809.0,
          2812.0,
          2820.0,
          2813.0,
          2804.0,
          2799.0,
          2799.0,
          2809.0,
          2814.0,
          2812.0,
          2808.0,
          2808.0,
          2814.0,
          2815.0,
          2815.0,
          2812.0,
          2818.0,
          2825.0,
          2828.0,
          2830.0,
          2837.0,
          2828.0,
          2817.0,
          2811.0,
          2805.0,
          2804.0,
          2804.0,
          2801.0,
          2797.0,
          2796.0,
          2794.0,
          2792.0,
          2790.0,
          2794.0,
          2799.0,
          2801.0,
          2800.0,
          2804.0,
          2808.0,
          2805.0,
          2805.0,
          2810.0,
          2814.0,
          2813.0,
          2814.0,
          2816.0,
          2817.0,
          2821.0,
          2816.0,
          2811.0,
          2804.0,
          2805.0,
          2816.0,
          2808.0,
          2800.0,
