{
  "aor": 0.004300548780487805,
  "aqi": 0.0077216481097560985,
  "bids_meta": {
    "AcquisitionMatrixPE": 96,
    "AcquisitionNumber": 1,
    "AcquisitionTime": "18:13:31.417500",
    "BandwidthPerPixelPhaseEncode": 52.083,
    "BaseResolution": 96,
    "BodyPartExamined": "HEAD",
    "ConversionSoftware": "dcm2niix",
    "ConversionSoftwareVersion": "v1.0.20180622 GCC6.3.0",
    "DerivedVendorReportedEchoSpacing": 0.000600004,
    "DeviceSerialNumber": "18926",
    "DwellTime": 2.6e-06,
    "EchoTime": 0.025,
    "EffectiveEchoSpacing": 0.000200001,
    "FlipAngle": 50,
    "ImageOrientationPatientDICOM": [
      0.999992,
      0.00067012,
      0.00404905,
      2.11009e-10,
      0.98658,
      -0.16328
    ],
    "ImageType": [
      "ORIGINAL",
      "PRIMARY",
      "M",
      "ND",
      "ECHO",
      "00",
      "MOSAIC"
    ],
    "InPlanePhaseEncodingDirectionDICOM": "ROW",
    "InstitutionName": "NIMH",
    "InstitutionalDepartmentName": "Department",
    "MRAcquisitionType": "2D",
    "MagneticFieldStrength": 6.98,
    "Manufacturer": "Siemens",
    "ManufacturersModelName": "Investigational_Device_7T",
    "Modality": "MR",
    "ParallelReductionFactorInPlane": 3,
    "PartialFourier": 1,
    "PatientPosition": "HFS",
    "PercentPhaseFOV": 100,
    "PhaseEncodingDirection": "i",
    "PhaseEncodingSteps": 94,
    "PhaseResolution": 1,
    "PixelBandwidth": 2003,
    "ProcedureStepDescription": "UserProtocols_gonzalez",
    "ProtocolName": "NIH_EPI_2.0iso_TR2_Run07",
    "PulseSequenceDetails": "%CustomerSeq%_inati_nih_epi",
    "ReceiveCoilName": "32Ch_Head_7T",
    "ReconMatrixPE": 96,
    "RepetitionTime": 2,
    "SAR": 0.074259,
    "ScanningSequence": "EP",
    "SequenceName": "epfid2d1_96",
    "SequenceVariant": "SK",
    "SeriesDescription": "NIH_EPI_2.0iso_TR2_Run07",
    "SeriesNumber": 12,
    "ShimSetting": [
      -67,
      220,
      792,
      820,
      -178,
      639,
      -147,
      -424
    ],
    "SliceThickness": 2,
    "SliceTiming": [
      1.0025,
      0,
      1.04,
      0.0375,
      1.0775,
      0.0725,
      1.115,
      0.11,
      1.1525,
      0.1475,
      1.19,
      0.185,
      1.225,
      0.2225,
      1.2625,
      0.26,
      1.3,
      0.2975,
      1.3375,
      0.335,
      1.375,
      0.37,
      1.4125,
      0.4075,
      1.45,
      0.445,
      1.4875,
      0.4825,
      1.5225,
      0.52,
      1.56,
      0.5575,
      1.5975,
      0.595,
      1.635,
      0.6325,
      1.6725,
      0.6675,
      1.71,
      0.705,
      1.7475,
      0.7425,
      1.785,
      0.78,
      1.82,
      0.8175,
      1.8575,
      0.855,
      1.895,
      0.8925,
      1.9325,
      0.93,
      1.97,
      0.965
    ],
    "SoftwareVersions": "syngo_MR_B17",
    "SpacingBetweenSlices": 2,
    "StationName": "FMRIFD7T",
    "TaskName": "HalfFovNoTask",
    "TotalReadoutTime": 0.0190001,
    "TxRefAmp": 310,
    "dataset": "ds001555",
    "dcmmeta_affine": [
      [
        -1.9999831914901733,
        4.2201880878778297e-10,
        0.008208253420889378,
        95.76705169677734
      ],
      [
        -0.0013402394251897931,
        1.973159670829773,
        -0.32655632495880127,
        -59.06997299194336
      ],
      [
        0.008098097518086433,
        0.32655906677246094,
        1.9731429815292358,
        -48.99201583862305
      ],
      [
        0.0,
        0.0,
        0.0,
        1.0
      ]
    ],
    "dcmmeta_reorient_transform": [
      [
        0.0,
        -1.0,
        0.0,
        95.0
      ],
      [
        1.0,
        0.0,
        0.0,
        0.0
      ],
      [
        0.0,
        0.0,
        1.0,
        0.0
      ],
      [
        0.0,
        0.0,
        0.0,
        1.0
      ]
    ],
    "dcmmeta_shape": [
      96,
      96,
      54,
      164
    ],
    "dcmmeta_slice_dim": 2,
    "dcmmeta_version": 0.6,
    "global": {
      "const": {
        "AcquisitionMatrix": [
          0,
          96,
          96,
          0
        ],
        "AngioFlag": "N",
        "BitsAllocated": 16,
        "BitsStored": 12,
        "BodyPartExamined": "HEAD",
        "Columns": 768,
        "EchoNumbers": 1,
        "EchoTime": 25.0,
        "EchoTrainLength": 1,
        "FlipAngle": 50.0,
        "HighBit": 11,
        "ImageOrientationPatient": [
          0.99999157803662,
          0.00067011969073,
          0.00404904870684,
          2.110094e-10,
          0.98657984636313,
          -0.1632795356133
        ],
        "ImagePositionPatient": [
          -767.761392775,
          -791.81217619987,
          89.033982358472
        ],
        "ImageType": [
          "ORIGINAL",
          "PRIMARY",
          "M",
          "ND",
          "ECHO_00",
          "MOSAIC"
        ],
        "ImagedNucleus": "1H",
        "ImagingFrequency": 297.205124,
        "InPlanePhaseEncodingDirection": "ROW",
        "LargestImagePixelValue": 4095,
        "MRAcquisitionType": "2D",
        "MagneticFieldStrength": 6.98,
        "Manufacturer": "SIEMENS",
        "ManufacturerModelName": "Investigational_Device_7T",
        "Modality": "MR",
        "NumberOfAverages": 1.0,
        "NumberOfPhaseEncodingSteps": 94,
        "PercentPhaseFieldOfView": 100.0,
        "PercentSampling": 100.0,
        "PerformedProcedureStepStartTime": "165316.806000",
        "PhotometricInterpretation": "MONOCHROME2",
        "PixelBandwidth": 2003.0,
        "PixelRepresentation": 0,
        "PixelSpacing": [
          2.0,
          2.0
        ],
        "PositionReferenceIndicator": "",
        "ProtocolName": "NIH_EPI_2.0iso_TR2_Run07",
        "RepetitionTime": 2000.0,
        "Rows": 768,
        "SAR": 0.0742590412389,
        "SamplesPerPixel": 1,
        "ScanningSequence": "EP",
        "SequenceName": "epfid2d1_96",
        "SequenceVariant": "SK",
        "SeriesDescription": "NIH_EPI_2.0iso_TR2_Run07",
        "SeriesNumber": 12,
        "SliceLocation": -38.296252698867,
        "SliceThickness": 2.0,
        "SmallestImagePixelValue": 0,
        "SoftwareVersions": "syngo MR B17",
        "SpacingBetweenSlices": 1.9999999532897,
        "TransmitCoilName": "32Ch_Head_7T",
        "VariableFlipAngleFlag": "N",
        "WindowCenterWidthExplanation": "Algo1",
        "dBdt": 0.0
      },
      "slices": {}
    },
    "modality": "bold",
    "run_id": 9,
    "session_id": "04",
    "subject_id": "001",
    "task_id": "HalfFovNoTask",
    "time": {
      "samples": {
        "AcquisitionNumber": [
          1,
          2,
          3,
          4,
          5,
          6,
          7,
          8,
          9,
          10,
          11,
          12,
          13,
          14,
          15,
          16,
          17,
          18,
          19,
          20,
          21,
          22,
          23,
          24,
          25,
          26,
          27,
          28,
          29,
          30,
          31,
          32,
          33,
          34,
          35,
          36,
          37,
          38,
          39,
          40,
          41,
          42,
          43,
          44,
          45,
          46,
          47,
          48,
          49,
          50,
          51,
          52,
          53,
          54,
          55,
          56,
          57,
          58,
          59,
          60,
          61,
          62,
          63,
          64,
          65,
          66,
          67,
          68,
          69,
          70,
          71,
          72,
          73,
          74,
          75,
          76,
          77,
          78,
          79,
          80,
          81,
          82,
          83,
          84,
          85,
          86,
          87,
          88,
          89,
          90,
          91,
          92,
          93,
          94,
          95,
          96,
          97,
          98,
          99,
          100,
          101,
          102,
          103,
          104,
          105,
          106,
          107,
          108,
          109,
          110,
          111,
          112,
          113,
          114,
          115,
          116,
          117,
          118,
          119,
          120,
          121,
          122,
          123,
          124,
          125,
          126,
          127,
          128,
          129,
          130,
          131,
          132,
          133,
          134,
          135,
          136,
          137,
          138,
          139,
          140,
          141,
          142,
          143,
          144,
          145,
          146,
          147,
          148,
          149,
          150,
          151,
          152,
          153,
          154,
          155,
          156,
          157,
          158,
          159,
          160,
          161,
          162,
          163,
          164
        ],
        "AcquisitionTime": [
          "181331.417500",
          "181335.435000",
          "181337.442500",
          "181339.450000",
          "181341.457500",
          "181343.467500",
          "181345.475000",
          "181347.482500",
          "181349.490000",
          "181351.497500",
          "181353.507500",
          "181355.515000",
          "181357.522500",
          "181359.530000",
          "181401.537500",
          "181403.547500",
          "181405.555000",
          "181407.562500",
          "181409.570000",
          "181411.580000",
          "181413.587500",
          "181415.595000",
          "181417.602500",
          "181419.610000",
          "181421.620000",
          "181423.627500",
          "181425.635000",
          "181427.642500",
          "181429.650000",
          "181431.660000",
          "181433.667500",
          "181435.675000",
          "181437.682500",
          "181439.690000",
          "181441.700000",
          "181443.707500",
          "181445.715000",
          "181447.722500",
          "181449.732500",
          "181451.740000",
          "181453.747500",
          "181455.755000",
          "181457.762500",
          "181459.772500",
          "181501.780000",
          "181503.787500",
          "181505.795000",
          "181507.802500",
          "181509.812500",
          "181511.820000",
          "181513.827500",
          "181515.835000",
          "181517.845000",
          "181519.852500",
          "181521.860000",
          "181523.867500",
          "181525.875000",
          "181527.885000",
          "181529.892500",
          "181531.900000",
          "181533.907500",
          "181535.915000",
          "181537.925000",
          "181539.932500",
          "181541.940000",
          "181543.947500",
          "181545.957500",
          "181547.965000",
          "181549.972500",
          "181551.980000",
          "181553.987500",
          "181555.997500",
          "181558.005000",
          "181600.012500",
          "181602.020000",
          "181604.027500",
          "181606.037500",
          "181608.045000",
          "181610.052500",
          "181612.060000",
          "181614.067500",
          "181616.077500",
          "181618.085000",
          "181620.092500",
          "181622.100000",
          "181624.110000",
          "181626.117500",
          "181628.125000",
          "181630.132500",
          "181632.140000",
          "181634.150000",
          "181636.157500",
          "181638.165000",
          "181640.172500",
          "181642.180000",
          "181644.190000",
          "181646.197500",
          "181648.205000",
          "181650.212500",
          "181652.222500",
          "181654.230000",
          "181656.237500",
          "181658.245000",
          "181700.252500",
          "181702.262500",
          "181704.270000",
          "181706.277500",
          "181708.285000",
          "181710.292500",
          "181712.302500",
          "181714.310000",
          "181716.317500",
          "181718.325000",
          "181720.335000",
          "181722.342500",
          "181724.350000",
          "181726.357500",
          "181728.365000",
          "181730.375000",
          "181732.382500",
          "181734.390000",
          "181736.397500",
          "181738.405000",
          "181740.415000",
          "181742.422500",
          "181744.430000",
          "181746.437500",
          "181748.445000",
          "181750.455000",
          "181752.462500",
          "181754.470000",
          "181756.477500",
          "181758.487500",
          "181800.495000",
          "181802.502500",
          "181804.510000",
          "181806.517500",
          "181808.527500",
          "181810.535000",
          "181812.542500",
          "181814.550000",
          "181816.557500",
          "181818.567500",
          "181820.575000",
          "181822.582500",
          "181824.590000",
          "181826.600000",
          "181828.607500",
          "181830.615000",
          "181832.622500",
          "181834.630000",
          "181836.640000",
          "181838.647500",
          "181840.655000",
          "181842.662500",
          "181844.670000",
          "181846.680000",
          "181848.687500",
          "181850.695000",
          "181852.702500",
          "181854.712500",
          "181856.720000",
          "181858.727500",
          "181900.735000"
        ],
        "ContentTime": [
          "181427.113000",
          "181427.128000",
          "181427.128000",
          "181427.128000",
          "181427.128000",
          "181427.128000",
          "181427.144000",
          "181427.160000",
          "181427.160000",
          "181427.160000",
          "181427.160000",
          "181427.160000",
          "181427.160000",
          "181427.175000",
          "181427.175000",
          "181427.175000",
          "181427.175000",
          "181427.175000",
          "181427.175000",
          "181427.175000",
          "181427.191000",
          "181427.191000",
          "181427.191000",
          "181427.191000",
          "181427.206000",
          "181507.098000",
          "181507.098000",
          "181507.113000",
          "181507.113000",
          "181507.113000",
          "181507.113000",
          "181507.113000",
          "181507.113000",
          "181507.129000",
          "181507.129000",
          "181507.129000",
          "181507.129000",
          "181507.129000",
          "181507.129000",
          "181507.129000",
          "181507.145000",
          "181507.145000",
          "181507.145000",
          "181507.145000",
          "181507.145000",
          "181547.098000",
          "181547.098000",
          "181547.114000",
          "181547.114000",
          "181547.114000",
          "181547.114000",
          "181547.114000",
          "181547.114000",
          "181547.114000",
          "181547.130000",
          "181547.130000",
          "181547.130000",
          "181547.130000",
          "181547.130000",
          "181547.130000",
          "181547.145000",
          "181547.145000",
          "181547.145000",
          "181547.145000",
          "181547.145000",
          "181627.099000",
          "181627.099000",
          "181627.099000",
          "181627.115000",
          "181627.115000",
          "181627.115000",
          "181627.115000",
          "181627.115000",
          "181627.115000",
          "181627.131000",
          "181627.131000",
          "181627.131000",
          "181627.131000",
          "181627.131000",
          "181627.131000",
          "181627.131000",
          "181627.146000",
          "181627.146000",
          "181627.146000",
          "181627.162000",
          "181707.100000",
          "181707.100000",
          "181707.116000",
          "181707.116000",
          "181707.116000",
          "181707.116000",
          "181707.116000",
          "181707.116000",
          "181707.116000",
          "181707.131000",
          "181707.131000",
          "181707.131000",
          "181707.131000",
          "181707.131000",
          "181707.131000",
          "181707.131000",
          "181707.147000",
          "181707.147000",
          "181707.147000",
          "181707.147000",
          "181747.101000",
          "181747.101000",
          "181747.101000",
          "181747.116000",
          "181747.116000",
          "181747.116000",
          "181747.116000",
          "181747.116000",
          "181747.116000",
          "181747.116000",
          "181747.132000",
          "181747.132000",
          "181747.132000",
          "181747.132000",
          "181747.132000",
          "181747.148000",
          "181747.148000",
          "181747.148000",
          "181747.148000",
          "181747.163000",
          "181827.117000",
          "181827.117000",
          "181827.117000",
          "181827.117000",
          "181827.133000",
          "181827.133000",
          "181827.133000",
          "181827.133000",
          "181827.148000",
          "181827.148000",
          "181827.148000",
          "181827.148000",
          "181827.148000",
          "181827.148000",
          "181827.148000",
          "181827.164000",
          "181827.164000",
          "181827.164000",
          "181827.164000",
          "181827.164000",
          "181903.632000",
          "181903.648000",
          "181903.648000",
          "181903.648000",
          "181903.648000",
          "181903.663000",
          "181903.663000",
          "181903.663000",
          "181903.663000",
          "181903.663000",
          "181903.679000",
          "181903.679000",
          "181903.679000",
          "181903.695000",
          "181903.695000",
          "181903.695000",
          "181903.695000",
          "181903.695000",
          "181903.695000"
        ],
        "InstanceCreationTime": [
          "181427.113000",
          "181427.128000",
          "181427.128000",
          "181427.128000",
          "181427.128000",
          "181427.128000",
          "181427.144000",
          "181427.160000",
          "181427.160000",
          "181427.160000",
          "181427.160000",
          "181427.160000",
          "181427.160000",
          "181427.175000",
          "181427.175000",
          "181427.175000",
          "181427.175000",
          "181427.175000",
          "181427.175000",
          "181427.175000",
          "181427.191000",
          "181427.191000",
          "181427.191000",
          "181427.191000",
          "181427.206000",
          "181507.098000",
          "181507.098000",
          "181507.113000",
          "181507.113000",
          "181507.113000",
          "181507.113000",
          "181507.113000",
          "181507.113000",
          "181507.129000",
          "181507.129000",
          "181507.129000",
          "181507.129000",
          "181507.129000",
          "181507.129000",
          "181507.129000",
          "181507.145000",
          "181507.145000",
          "181507.145000",
          "181507.145000",
          "181507.145000",
          "181547.098000",
          "181547.098000",
          "181547.114000",
          "181547.114000",
          "181547.114000",
          "181547.114000",
          "181547.114000",
          "181547.114000",
          "181547.114000",
          "181547.130000",
          "181547.130000",
          "181547.130000",
          "181547.130000",
          "181547.130000",
          "181547.130000",
          "181547.145000",
          "181547.145000",
          "181547.145000",
          "181547.145000",
          "181547.145000",
          "181627.099000",
          "181627.099000",
          "181627.099000",
          "181627.115000",
          "181627.115000",
          "181627.115000",
          "181627.115000",
          "181627.115000",
          "181627.115000",
          "181627.131000",
          "181627.131000",
          "181627.131000",
          "181627.131000",
          "181627.131000",
          "181627.131000",
          "181627.131000",
          "181627.146000",
          "181627.146000",
          "181627.146000",
          "181627.162000",
          "181707.100000",
          "181707.100000",
          "181707.116000",
          "181707.116000",
          "181707.116000",
          "181707.116000",
          "181707.116000",
          "181707.116000",
          "181707.116000",
          "181707.131000",
          "181707.131000",
          "181707.131000",
          "181707.131000",
          "181707.131000",
          "181707.131000",
          "181707.131000",
          "181707.147000",
          "181707.147000",
          "181707.147000",
          "181707.147000",
          "181747.101000",
          "181747.101000",
          "181747.101000",
          "181747.116000",
          "181747.116000",
          "181747.116000",
          "181747.116000",
          "181747.116000",
          "181747.116000",
          "181747.116000",
          "181747.132000",
          "181747.132000",
          "181747.132000",
          "181747.132000",
          "181747.132000",
          "181747.148000",
          "181747.148000",
          "181747.148000",
          "181747.148000",
          "181747.163000",
          "181827.117000",
          "181827.117000",
          "181827.117000",
          "181827.117000",
          "181827.133000",
          "181827.133000",
          "181827.133000",
          "181827.133000",
          "181827.148000",
          "181827.148000",
          "181827.148000",
          "181827.148000",
          "181827.148000",
          "181827.148000",
          "181827.148000",
          "181827.164000",
          "181827.164000",
          "181827.164000",
          "181827.164000",
          "181827.164000",
          "181903.632000",
          "181903.648000",
          "181903.648000",
          "181903.648000",
          "181903.648000",
          "181903.663000",
          "181903.663000",
          "181903.663000",
          "181903.663000",
          "181903.663000",
          "181903.679000",
          "181903.679000",
          "181903.679000",
          "181903.695000",
          "181903.695000",
          "181903.695000",
          "181903.695000",
          "181903.695000",
          "181903.695000"
        ],
        "InstanceNumber": [
          1,
          2,
          3,
          4,
          5,
          6,
          7,
          8,
          9,
          10,
          11,
          12,
          13,
          14,
          15,
          16,
          17,
          18,
          19,
          20,
          21,
          22,
          23,
          24,
          25,
          26,
          27,
          28,
          29,
          30,
          31,
          32,
          33,
          34,
          35,
          36,
          37,
          38,
          39,
          40,
          41,
          42,
          43,
          44,
          45,
          46,
          47,
          48,
          49,
          50,
          51,
          52,
          53,
          54,
          55,
          56,
          57,
          58,
          59,
          60,
          61,
          62,
          63,
          64,
          65,
          66,
          67,
          68,
          69,
          70,
          71,
          72,
          73,
          74,
          75,
          76,
          77,
          78,
          79,
          80,
          81,
          82,
          83,
          84,
          85,
          86,
          87,
          88,
          89,
          90,
          91,
          92,
          93,
          94,
          95,
          96,
          97,
          98,
          99,
          100,
          101,
          102,
          103,
          104,
          105,
          106,
          107,
          108,
          109,
          110,
          111,
          112,
          113,
          114,
          115,
          116,
          117,
          118,
          119,
          120,
          121,
          122,
          123,
          124,
          125,
          126,
          127,
          128,
          129,
          130,
          131,
          132,
          133,
          134,
          135,
          136,
          137,
          138,
          139,
          140,
          141,
          142,
          143,
          144,
          145,
          146,
          147,
          148,
          149,
          150,
          151,
          152,
          153,
          154,
          155,
          156,
          157,
          158,
          159,
          160,
          161,
          162,
          163,
          164
        ],
        "WindowCenter": [
          1176.0,
          1176.0,
          1176.0,
          1176.0,
          1178.0,
          1180.0,
          1180.0,
          1176.0,
          1175.0,
          1177.0,
          1175.0,
          1173.0,
          1174.0,
          1175.0,
          1175.0,
          1174.0,
          1173.0,
          1175.0,
          1176.0,
          1174.0,
          1174.0,
          1174.0,
          1174.0,
          1173.0,
          1173.0,
          1173.0,
          1172.0,
          1173.0,
          1174.0,
          1178.0,
          1180.0,
          1177.0,
          1176.0,
          1176.0,
          1175.0,
          1176.0,
          1177.0,
          1176.0,
          1174.0,
          1174.0,
          1172.0,
          1172.0,
          1172.0,
          1172.0,
          1173.0,
          1175.0,
          1173.0,
          1173.0,
          1175.0,
          1176.0,
          1177.0,
          1176.0,
          1174.0,
          1174.0,
          1177.0,
          1178.0,
          1177.0,
          1175.0,
          1174.0,
          1176.0,
          1174.0,
          1174.0,
          1175.0,
          1177.0,
          1178.0,
          1181.0,
          1182.0,
          1179.0,
          1176.0,
          1177.0,
          1178.0,
          1176.0,
          1175.0,
          1174.0,
          1174.0,
          1177.0,
          1178.0,
          1176.0,
          1173.0,
          1173.0,
          1176.0,
          1178.0,
          1179.0,
          1176.0,
          1175.0,
          1175.0,
          1177.0,
          1181.0,
          1179.0,
          1176.0,
          1177.0,
          1177.0,
          1177.0,
          1176.0,
          1177.0,
          1179.0,
          1179.0,
          1182.0,
          1181.0,
          1181.0,
          1180.0,
          1177.0,
          1177.0,
          1178.0,
          1178.0,
          1177.0,
          1178.0,
          1177.0,
          1179.0,
          1180.0,
          1177.0,
          1175.0,
          1175.0,
          1177.0,
          1177.0,
          1176.0,
          1175.0,
          1175.0,
          1175.0,
          1175.0,
          1176.0,
          1175.0,
          1175.0,
          1176.0,
          1177.0,
          1179.0,
          1179.0,
          1180.0,
          1180.0,
          1180.0,
          1179.0,
          1181.0,
          1182.0,
          1180.0,
          1179.0,
          1180.0,
          1181.0,
          1181.0,
          1181.0,
          1178.0,
          1179.0,
          1178.0,
          1176.0,
          1179.0,
          1179.0,
          1178.0,
          1176.0,
          1176.0,
          1181.0,
          1181.0,
          1180.0,
          1175.0,
          1174.0,
          1177.0,
          1180.0,
          1183.0,
          1185.0,
          1183.0,
          1176.0,
          1175.0,
          1175.0,
          1178.0,
          1180.0,
          1178.0
        ],
        "WindowWidth": [
          2822.0,
          2823.0,
          2818.0,
          2815.0,
          2824.0,
          2828.0,
          2826.0,
          2816.0,
          2819.0,
          2821.0,
          2815.0,
          2809.0,
          2811.0,
          2815.0,
          2814.0,
          2811.0,
          2811.0,
          2819.0,
          2820.0,
          2815.0,
          2814.0,
          2814.0,
          2815.0,
          2814.0,
          2813.0,
          2812.0,
          2809.0,
          2811.0,
          2814.0,
          2824.0,
          2832.0,
          2824.0,
          2818.0,
          2822.0,
          2822.0,
          2822.0,
          2823.0,
          2821.0,
          2813.0,
          2812.0,
          2811.0,
          2808.0,
          2808.0,
          2809.0,
          2813.0,
          2815.0,
          2813.0,
          2813.0,
          2818.0,
          2821.0,
          2824.0,
          2819.0,
          2814.0,
          2819.0,
          2826.0,
          2827.0,
          2820.0,
          2817.0,
          2818.0,
          2818.0,
          2817.0,
          2814.0,
          2817.0,
          2822.0,
          2826.0,
          2835.0,
          2835.0,
          2826.0,
          2820.0,
          2820.0,
          2821.0,
          2818.0,
          2813.0,
          2812.0,
          2815.0,
          2821.0,
          2822.0,
          2815.0,
          2810.0,
          2810.0,
          2818.0,
          2827.0,
          2825.0,
          2817.0,
          2815.0,
          2815.0,
          2822.0,
          2828.0,
          2823.0,
          2817.0,
          2819.0,
          2817.0,
          2818.0,
          2817.0,
          2819.0,
          2822.0,
          2826.0,
          2834.0,
          2832.0,
          2828.0,
          2826.0,
          2819.0,
          2819.0,
          2824.0,
          2822.0,
          2818.0,
          2821.0,
          2818.0,
          2825.0,
          2827.0,
          2817.0,
          2814.0,
          2817.0,
          2820.0,
          2819.0,
          2817.0,
          2815.0,
          2815.0,
          2814.0,
          2813.0,
          2814.0,
          2809.0,
          2810.0,
          2815.0,
          2818.0,
          2820.0,
          2823.0,
          2823.0,
          2825.0,
