{
  "aor": 0.0014389634146341464,
  "aqi": 0.007465687804878049,
  "bids_meta": {
    "AcquisitionMatrixPE": 96,
    "AcquisitionNumber": 1,
    "AcquisitionTime": "11:16:59.397500",
    "BandwidthPerPixelPhaseEncode": 52.083,
    "BaseResolution": 96,
    "BodyPartExamined": "HEAD",
    "ConversionSoftware": "dcm2niix",
    "ConversionSoftwareVersion": "v1.0.20180622 GCC6.3.0",
    "DerivedVendorReportedEchoSpacing": 0.000600004,
    "DeviceSerialNumber": "18926",
    "DwellTime": 2.6e-06,
    "EchoTime": 0.025,
    "EffectiveEchoSpacing": 0.000200001,
    "FlipAngle": 50,
    "ImageOrientationPatientDICOM": [
      0.999992,
      0.000228905,
      0.00409774,
      1.99989e-10,
      0.998443,
      -0.0557745
    ],
    "ImageType": [
      "ORIGINAL",
      "PRIMARY",
      "M",
      "ND",
      "ECHO",
      "00",
      "MOSAIC"
    ],
    "InPlanePhaseEncodingDirectionDICOM": "ROW",
    "InstitutionName": "NIMH",
    "InstitutionalDepartmentName": "Department",
    "MRAcquisitionType": "2D",
    "MagneticFieldStrength": 6.98,
    "Manufacturer": "Siemens",
    "ManufacturersModelName": "Investigational_Device_7T",
    "Modality": "MR",
    "ParallelReductionFactorInPlane": 3,
    "PartialFourier": 1,
    "PatientPosition": "HFS",
    "PercentPhaseFOV": 100,
    "PhaseEncodingDirection": "i",
    "PhaseEncodingSteps": 94,
    "PhaseResolution": 1,
    "PixelBandwidth": 2003,
    "ProcedureStepDescription": "MRI_Procedure_Limited",
    "ProtocolName": "NIH_EPI_2.0iso_TR2_Run08",
    "PulseSequenceDetails": "%CustomerSeq%_inati_nih_epi",
    "ReceiveCoilName": "32Ch_Head_7T",
    "ReconMatrixPE": 96,
    "RepetitionTime": 2,
    "SAR": 0.0917494,
    "ScanningSequence": "EP",
    "SequenceName": "epfid2d1_96",
    "SequenceVariant": "SK",
    "SeriesDescription": "NIH_EPI_2.0iso_TR2_Run08",
    "SeriesNumber": 13,
    "ShimSetting": [
      -116,
      198,
      1010,
      2037,
      -170,
      849,
      901,
      -364
    ],
    "SliceThickness": 2,
    "SliceTiming": [
      1.005,
      0,
      1.0425,
      0.0375,
      1.08,
      0.075,
      1.115,
      0.1125,
      1.1525,
      0.15,
      1.19,
      0.1875,
      1.2275,
      0.2225,
      1.265,
      0.26,
      1.3025,
      0.2975,
      1.34,
      0.335,
      1.375,
      0.3725,
      1.4125,
      0.41,
      1.45,
      0.4475,
      1.4875,
      0.485,
      1.525,
      0.52,
      1.5625,
      0.5575,
      1.6,
      0.595,
      1.6375,
      0.6325,
      1.6725,
      0.67,
      1.71,
      0.7075,
      1.7475,
      0.745,
      1.785,
      0.7825,
      1.8225,
      0.8175,
      1.86,
      0.855,
      1.8975,
      0.8925,
      1.935,
      0.93,
      1.97,
      0.9675
    ],
    "SoftwareVersions": "syngo_MR_B17",
    "SpacingBetweenSlices": 2,
    "StationName": "FMRIFD7T",
    "TaskName": "FullFovAttentionTask",
    "TotalReadoutTime": 0.0190001,
    "TxRefAmp": 278,
    "dataset": "ds001555",
    "dcmmeta_affine": [
      [
        -1.9999831914901733,
        3.999781894581389e-10,
        0.008208253420889378,
        95.76705169677734
      ],
      [
        -0.00045781099470332265,
        1.9968867301940918,
        -0.11154810339212418,
        -67.94931030273438
      ],
      [
        0.008195475675165653,
        0.11154904216527939,
        1.9968699216842651,
        -37.49588394165039
      ],
      [
        0.0,
        0.0,
        0.0,
        1.0
      ]
    ],
    "dcmmeta_reorient_transform": [
      [
        0.0,
        -1.0,
        0.0,
        95.0
      ],
      [
        1.0,
        0.0,
        0.0,
        0.0
      ],
      [
        0.0,
        0.0,
        1.0,
        0.0
      ],
      [
        0.0,
        0.0,
        0.0,
        1.0
      ]
    ],
    "dcmmeta_shape": [
      96,
      96,
      54,
      164
    ],
    "dcmmeta_slice_dim": 2,
    "dcmmeta_version": 0.6,
    "global": {
      "const": {
        "AcquisitionMatrix": [
          0,
          96,
          96,
          0
        ],
        "Allergies": "No Known Allergies",
        "AngioFlag": "N",
        "BitsAllocated": 16,
        "BitsStored": 12,
        "BodyPartExamined": "HEAD",
        "Columns": 768,
        "EchoNumbers": 1,
        "EchoTime": 25.0,
        "EchoTrainLength": 1,
        "FlipAngle": 50.0,
        "HighBit": 11,
        "ImageOrientationPatient": [
          0.99999157803714,
          0.00022890549908,
          0.00409773804192,
          1.999891e-10,
          0.99844338980486,
          -0.0557745224541
        ],
        "ImagePositionPatient": [
          -767.76139276693,
          -792.86271567672,
          7.8280730866619
        ],
        "ImageType": [
          "ORIGINAL",
          "PRIMARY",
          "M",
          "ND",
          "ECHO_00",
          "MOSAIC"
        ],
        "ImagedNucleus": "1H",
        "ImagingFrequency": 297.20505,
        "InPlanePhaseEncodingDirection": "ROW",
        "LargestImagePixelValue": 4095,
        "MRAcquisitionType": "2D",
        "MagneticFieldStrength": 6.98,
        "Manufacturer": "SIEMENS",
        "ManufacturerModelName": "Investigational_Device_7T",
        "Modality": "MR",
        "NumberOfAverages": 1.0,
        "NumberOfPhaseEncodingSteps": 94,
        "PercentPhaseFieldOfView": 100.0,
        "PercentSampling": 100.0,
        "PerformedProcedureStepStartTime": "101021.055000",
        "PhotometricInterpretation": "MONOCHROME2",
        "PixelBandwidth": 2003.0,
        "PixelRepresentation": 0,
        "PixelSpacing": [
          2.0,
          2.0
        ],
        "PositionReferenceIndicator": "",
        "ProcedureCodeSequence": [
          {
            "CodeMeaning": "MRI Procedure Limited",
            "CodeValue": "MI01491",
            "CodingSchemeDesignator": "USA Standard",
            "ContextIdentifier": "4000114368"
          }
        ],
        "ProtocolName": "NIH_EPI_2.0iso_TR2_Run08",
        "ReferencedStudySequence": [
          {
            "ReferencedSOPClassUID": "1.2.840.10008.3.1.2.3.1",
            "ReferencedSOPInstanceUID": "1.2.840.113564.9.1.2723958737.61.2.5000080179"
          }
        ],
        "RepetitionTime": 2000.0,
        "RequestedProcedureCodeSequence": [
          {
            "CodeMeaning": "MRI Procedure Limited",
            "CodeValue": "MI01491",
            "CodingSchemeDesignator": "USA Standard",
            "ContextIdentifier": "4000114368"
          }
        ],
        "RequestingService": "MHMI",
        "Rows": 768,
        "SAR": 0.09174936144599,
        "SamplesPerPixel": 1,
        "ScanningSequence": "EP",
        "SequenceName": "epfid2d1_96",
        "SequenceVariant": "SK",
        "SeriesDescription": "NIH_EPI_2.0iso_TR2_Run08",
        "SeriesNumber": 13,
        "SliceLocation": -33.254354983146,
        "SliceThickness": 2.0,
        "SmallestImagePixelValue": 0,
        "SoftwareVersions": "syngo MR B17",
        "SpacingBetweenSlices": 2.0000000076982,
        "TransmitCoilName": "32Ch_Head_7T",
        "VariableFlipAngleFlag": "N",
        "WindowCenterWidthExplanation": "Algo1",
        "dBdt": 0.0
      },
      "slices": {}
    },
    "modality": "bold",
    "run_id": 10,
    "session_id": "04",
    "subject_id": "003",
    "task_id": "FullFovAttentionTask",
    "time": {
      "samples": {
        "AcquisitionNumber": [
          1,
          2,
          3,
          4,
          5,
          6,
          7,
          8,
          9,
          10,
          11,
          12,
          13,
          14,
          15,
          16,
          17,
          18,
          19,
          20,
          21,
          22,
          23,
          24,
          25,
          26,
          27,
          28,
          29,
          30,
          31,
          32,
          33,
          34,
          35,
          36,
          37,
          38,
          39,
          40,
          41,
          42,
          43,
          44,
          45,
          46,
          47,
          48,
          49,
          50,
          51,
          52,
          53,
          54,
          55,
          56,
          57,
          58,
          59,
          60,
          61,
          62,
          63,
          64,
          65,
          66,
          67,
          68,
          69,
          70,
          71,
          72,
          73,
          74,
          75,
          76,
          77,
          78,
          79,
          80,
          81,
          82,
          83,
          84,
          85,
          86,
          87,
          88,
          89,
          90,
          91,
          92,
          93,
          94,
          95,
          96,
          97,
          98,
          99,
          100,
          101,
          102,
          103,
          104,
          105,
          106,
          107,
          108,
          109,
          110,
          111,
          112,
          113,
          114,
          115,
          116,
          117,
          118,
          119,
          120,
          121,
          122,
          123,
          124,
          125,
          126,
          127,
          128,
          129,
          130,
          131,
          132,
          133,
          134,
          135,
          136,
          137,
          138,
          139,
          140,
          141,
          142,
          143,
          144,
          145,
          146,
          147,
          148,
          149,
          150,
          151,
          152,
          153,
          154,
          155,
          156,
          157,
          158,
          159,
          160,
          161,
          162,
          163,
          164
        ],
        "AcquisitionTime": [
          "111659.397500",
          "111703.412500",
          "111705.420000",
          "111707.430000",
          "111709.437500",
          "111711.445000",
          "111713.452500",
          "111715.460000",
          "111717.470000",
          "111719.477500",
          "111721.485000",
          "111723.492500",
          "111725.502500",
          "111727.510000",
          "111729.517500",
          "111731.525000",
          "111733.532500",
          "111735.542500",
          "111737.550000",
          "111739.557500",
          "111741.565000",
          "111743.572500",
          "111745.582500",
          "111747.590000",
          "111749.597500",
          "111751.605000",
          "111753.615000",
          "111755.622500",
          "111757.630000",
          "111759.637500",
          "111801.645000",
          "111803.655000",
          "111805.662500",
          "111807.670000",
          "111809.677500",
          "111811.685000",
          "111813.695000",
          "111815.702500",
          "111817.710000",
          "111819.717500",
          "111821.725000",
          "111823.735000",
          "111825.742500",
          "111827.750000",
          "111829.757500",
          "111831.767500",
          "111833.775000",
          "111835.782500",
          "111837.790000",
          "111839.797500",
          "111841.807500",
          "111843.815000",
          "111845.822500",
          "111847.830000",
          "111849.837500",
          "111851.847500",
          "111853.855000",
          "111855.862500",
          "111857.870000",
          "111859.880000",
          "111901.887500",
          "111903.895000",
          "111905.902500",
          "111907.910000",
          "111909.920000",
          "111911.927500",
          "111913.935000",
          "111915.942500",
          "111917.950000",
          "111919.960000",
          "111921.967500",
          "111923.975000",
          "111925.982500",
          "111927.992500",
          "111930.000000",
          "111932.007500",
          "111934.015000",
          "111936.022500",
          "111938.032500",
          "111940.040000",
          "111942.047500",
          "111944.055000",
          "111946.062500",
          "111948.072500",
          "111950.080000",
          "111952.087500",
          "111954.095000",
          "111956.102500",
          "111958.112500",
          "112000.120000",
          "112002.127500",
          "112004.135000",
          "112006.145000",
          "112008.152500",
          "112010.160000",
          "112012.167500",
          "112014.175000",
          "112016.185000",
          "112018.192500",
          "112020.200000",
          "112022.207500",
          "112024.215000",
          "112026.225000",
          "112028.232500",
          "112030.240000",
          "112032.247500",
          "112034.257500",
          "112036.265000",
          "112038.272500",
          "112040.280000",
          "112042.287500",
          "112044.297500",
          "112046.305000",
          "112048.312500",
          "112050.320000",
          "112052.327500",
          "112054.337500",
          "112056.345000",
          "112058.352500",
          "112100.360000",
          "112102.370000",
          "112104.377500",
          "112106.385000",
          "112108.392500",
          "112110.400000",
          "112112.410000",
          "112114.417500",
          "112116.425000",
          "112118.432500",
          "112120.440000",
          "112122.450000",
          "112124.457500",
          "112126.465000",
          "112128.472500",
          "112130.482500",
          "112132.490000",
          "112134.497500",
          "112136.505000",
          "112138.512500",
          "112140.522500",
          "112142.530000",
          "112144.537500",
          "112146.545000",
          "112148.552500",
          "112150.562500",
          "112152.570000",
          "112154.577500",
          "112156.585000",
          "112158.592500",
          "112200.602500",
          "112202.610000",
          "112204.617500",
          "112206.625000",
          "112208.635000",
          "112210.642500",
          "112212.650000",
          "112214.657500",
          "112216.665000",
          "112218.675000",
          "112220.682500",
          "112222.690000",
          "112224.697500",
          "112226.705000",
          "112228.715000"
        ],
        "ContentTime": [
          "111741.851000",
          "111741.851000",
          "111741.851000",
          "111741.867000",
          "111741.867000",
          "111741.867000",
          "111741.867000",
          "111741.867000",
          "111741.883000",
          "111741.883000",
          "111741.883000",
          "111741.883000",
          "111741.883000",
          "111741.883000",
          "111741.898000",
          "111741.898000",
          "111741.898000",
          "111741.898000",
          "111741.898000",
          "111741.898000",
          "111821.836000",
          "111821.836000",
          "111821.836000",
          "111821.836000",
          "111821.836000",
          "111821.851000",
          "111821.851000",
          "111821.851000",
          "111821.851000",
          "111821.851000",
          "111821.851000",
          "111821.851000",
          "111821.867000",
          "111821.867000",
          "111821.867000",
          "111821.867000",
          "111821.867000",
          "111821.883000",
          "111821.883000",
          "111821.883000",
          "111901.836000",
          "111901.836000",
          "111901.836000",
          "111901.851000",
          "111901.851000",
          "111901.851000",
          "111901.851000",
          "111901.851000",
          "111901.851000",
          "111901.851000",
          "111901.867000",
          "111901.867000",
          "111901.867000",
          "111901.867000",
          "111901.867000",
          "111901.867000",
          "111901.867000",
          "111901.883000",
          "111901.883000",
          "111901.883000",
          "111941.836000",
          "111941.836000",
          "111941.836000",
          "111941.851000",
          "111941.851000",
          "111941.851000",
          "111941.851000",
          "111941.867000",
          "111941.867000",
          "111941.867000",
          "111941.867000",
          "111941.883000",
          "111941.883000",
          "111941.883000",
          "111941.898000",
          "111941.898000",
          "111941.898000",
          "111941.898000",
          "111941.898000",
          "111941.898000",
          "112021.836000",
          "112021.836000",
          "112021.836000",
          "112021.851000",
          "112021.851000",
          "112021.851000",
          "112021.851000",
          "112021.851000",
          "112021.851000",
          "112021.867000",
          "112021.867000",
          "112021.867000",
          "112021.867000",
          "112021.867000",
          "112021.883000",
          "112021.883000",
          "112021.883000",
          "112021.883000",
          "112021.883000",
          "112021.883000",
          "112101.836000",
          "112101.836000",
          "112101.836000",
          "112101.851000",
          "112101.851000",
          "112101.851000",
          "112101.851000",
          "112101.851000",
          "112101.867000",
          "112101.867000",
          "112101.867000",
          "112101.867000",
          "112101.867000",
          "112101.867000",
          "112101.883000",
          "112101.883000",
          "112101.883000",
          "112101.883000",
          "112101.883000",
          "112101.883000",
          "112141.836000",
          "112141.836000",
          "112141.836000",
          "112141.851000",
          "112141.851000",
          "112141.851000",
          "112141.851000",
          "112141.851000",
          "112141.867000",
          "112141.867000",
          "112141.867000",
          "112141.867000",
          "112141.867000",
          "112141.867000",
          "112141.883000",
          "112141.883000",
          "112141.883000",
          "112141.883000",
          "112141.883000",
          "112141.883000",
          "112221.836000",
          "112221.836000",
          "112221.836000",
          "112221.851000",
          "112221.851000",
          "112221.851000",
          "112221.851000",
          "112221.851000",
          "112221.851000",
          "112221.867000",
          "112221.867000",
          "112221.867000",
          "112221.867000",
          "112221.867000",
          "112221.867000",
          "112221.867000",
          "112221.883000",
          "112221.883000",
          "112221.883000",
          "112221.883000",
          "112228.883000",
          "112228.883000",
          "112228.883000",
          "112228.883000"
        ],
        "InstanceCreationTime": [
          "111741.851000",
          "111741.851000",
          "111741.851000",
          "111741.867000",
          "111741.867000",
          "111741.867000",
          "111741.867000",
          "111741.867000",
          "111741.883000",
          "111741.883000",
          "111741.883000",
          "111741.883000",
          "111741.883000",
          "111741.883000",
          "111741.898000",
          "111741.898000",
          "111741.898000",
          "111741.898000",
          "111741.898000",
          "111741.898000",
          "111821.836000",
          "111821.836000",
          "111821.836000",
          "111821.836000",
          "111821.836000",
          "111821.851000",
          "111821.851000",
          "111821.851000",
          "111821.851000",
          "111821.851000",
          "111821.851000",
          "111821.851000",
          "111821.867000",
          "111821.867000",
          "111821.867000",
          "111821.867000",
          "111821.867000",
          "111821.883000",
          "111821.883000",
          "111821.883000",
          "111901.836000",
          "111901.836000",
          "111901.836000",
          "111901.851000",
          "111901.851000",
          "111901.851000",
          "111901.851000",
          "111901.851000",
          "111901.851000",
          "111901.851000",
          "111901.867000",
          "111901.867000",
          "111901.867000",
          "111901.867000",
          "111901.867000",
          "111901.867000",
          "111901.867000",
          "111901.883000",
          "111901.883000",
          "111901.883000",
          "111941.836000",
          "111941.836000",
          "111941.836000",
          "111941.851000",
          "111941.851000",
          "111941.851000",
          "111941.851000",
          "111941.867000",
          "111941.867000",
          "111941.867000",
          "111941.867000",
          "111941.883000",
          "111941.883000",
          "111941.883000",
          "111941.898000",
          "111941.898000",
          "111941.898000",
          "111941.898000",
          "111941.898000",
          "111941.898000",
          "112021.836000",
          "112021.836000",
          "112021.836000",
          "112021.851000",
          "112021.851000",
          "112021.851000",
          "112021.851000",
          "112021.851000",
          "112021.851000",
          "112021.867000",
          "112021.867000",
          "112021.867000",
          "112021.867000",
          "112021.867000",
          "112021.883000",
          "112021.883000",
          "112021.883000",
          "112021.883000",
          "112021.883000",
          "112021.883000",
          "112101.836000",
          "112101.836000",
          "112101.836000",
          "112101.851000",
          "112101.851000",
          "112101.851000",
          "112101.851000",
          "112101.851000",
          "112101.867000",
          "112101.867000",
          "112101.867000",
          "112101.867000",
          "112101.867000",
          "112101.867000",
          "112101.883000",
          "112101.883000",
          "112101.883000",
          "112101.883000",
          "112101.883000",
          "112101.883000",
          "112141.836000",
          "112141.836000",
          "112141.836000",
          "112141.851000",
          "112141.851000",
          "112141.851000",
          "112141.851000",
          "112141.851000",
          "112141.867000",
          "112141.867000",
          "112141.867000",
          "112141.867000",
          "112141.867000",
          "112141.867000",
          "112141.883000",
          "112141.883000",
          "112141.883000",
          "112141.883000",
          "112141.883000",
          "112141.883000",
          "112221.836000",
          "112221.836000",
          "112221.836000",
          "112221.851000",
          "112221.851000",
          "112221.851000",
          "112221.851000",
          "112221.851000",
          "112221.851000",
          "112221.867000",
          "112221.867000",
          "112221.867000",
          "112221.867000",
          "112221.867000",
          "112221.867000",
          "112221.867000",
          "112221.883000",
          "112221.883000",
          "112221.883000",
          "112221.883000",
          "112228.883000",
          "112228.883000",
          "112228.883000",
          "112228.883000"
        ],
        "InstanceNumber": [
          1,
          2,
          3,
          4,
          5,
          6,
          7,
          8,
          9,
          10,
          11,
          12,
          13,
          14,
          15,
          16,
          17,
          18,
          19,
          20,
          21,
          22,
          23,
          24,
          25,
          26,
          27,
          28,
          29,
          30,
          31,
          32,
          33,
          34,
          35,
          36,
          37,
          38,
          39,
          40,
          41,
          42,
          43,
          44,
          45,
          46,
          47,
          48,
          49,
          50,
          51,
          52,
          53,
          54,
          55,
          56,
          57,
          58,
          59,
          60,
          61,
          62,
          63,
          64,
          65,
          66,
          67,
          68,
          69,
          70,
          71,
          72,
          73,
          74,
          75,
          76,
          77,
          78,
          79,
          80,
          81,
          82,
          83,
          84,
          85,
          86,
          87,
          88,
          89,
          90,
          91,
          92,
          93,
          94,
          95,
          96,
          97,
          98,
          99,
          100,
          101,
          102,
          103,
          104,
          105,
          106,
          107,
          108,
          109,
          110,
          111,
          112,
          113,
          114,
          115,
          116,
          117,
          118,
          119,
          120,
          121,
          122,
          123,
          124,
          125,
          126,
          127,
          128,
          129,
          130,
          131,
          132,
          133,
          134,
          135,
          136,
          137,
          138,
          139,
          140,
          141,
          142,
          143,
          144,
          145,
          146,
          147,
          148,
          149,
          150,
          151,
          152,
          153,
          154,
          155,
          156,
          157,
          158,
          159,
          160,
          161,
          162,
          163,
          164
        ],
        "WindowCenter": [
          959.0,
          958.0,
          957.0,
          958.0,
          958.0,
          957.0,
          958.0,
          957.0,
          957.0,
          958.0,
          957.0,
          958.0,
          957.0,
          958.0,
          957.0,
          958.0,
          957.0,
          958.0,
          957.0,
          956.0,
          957.0,
          957.0,
          957.0,
          957.0,
          957.0,
          957.0,
          957.0,
          956.0,
          957.0,
          956.0,
          956.0,
          955.0,
          956.0,
          956.0,
          955.0,
          956.0,
          956.0,
          956.0,
          956.0,
          956.0,
          954.0,
          956.0,
          956.0,
          956.0,
          955.0,
          956.0,
          956.0,
          956.0,
          956.0,
          956.0,
          958.0,
          959.0,
          958.0,
          956.0,
          957.0,
          957.0,
          957.0,
          957.0,
          956.0,
          955.0,
          956.0,
          956.0,
          956.0,
          955.0,
          955.0,
          955.0,
          956.0,
          958.0,
          958.0,
          957.0,
          956.0,
          955.0,
          955.0,
          956.0,
          956.0,
          955.0,
          956.0,
          956.0,
          956.0,
          956.0,
          957.0,
          956.0,
          955.0,
          955.0,
          956.0,
          956.0,
          956.0,
          955.0,
          955.0,
          955.0,
          956.0,
          956.0,
          956.0,
          956.0,
          956.0,
          956.0,
          955.0,
          956.0,
          955.0,
          955.0,
          955.0,
          955.0,
          955.0,
          955.0,
          955.0,
          954.0,
          955.0,
          954.0,
          955.0,
          955.0,
          955.0,
          956.0,
          956.0,
          956.0,
          956.0,
          956.0,
          955.0,
          955.0,
          954.0,
          954.0,
          954.0,
          955.0,
          955.0,
          955.0,
          954.0,
          954.0,
          956.0,
          955.0,
          956.0,
          955.0,
          955.0,
          955.0,
          956.0,
          955.0,
          955.0,
          955.0,
          955.0,
          956.0,
          956.0,
          957.0,
          956.0,
          955.0,
          955.0,
          955.0,
          955.0,
          955.0,
          957.0,
          957.0,
          957.0,
          957.0,
          957.0,
          957.0,
          956.0,
          956.0,
          956.0,
          956.0,
          956.0,
          955.0,
          955.0,
          955.0,
          956.0,
          955.0,
          956.0,
          956.0
        ],
        "WindowWidth": [
          2596.0,
          2594.0,
          2589.0,
          2589.0,
          2592.0,
          2596.0,
          2600.0,
          2597.0,
          2596.0,
          2598.0,
          2597.0,
          2600.0,
          2605.0,
          2602.0,
          2599.0,
          2599.0,
          2598.0,
          2596.0,
          2591.0,
          2589.0,
          2592.0,
          2597.0,
          2598.0,
          2601.0,
          2602.0,
          2597.0,
          2591.0,
          2586.0,
          2586.0,
          2586.0,
          2587.0,
          2589.0,
          2587.0,
          2584.0,
          2581.0,
          2583.0,
          2587.0,
          2589.0,
          2589.0,
          2585.0,
          2584.0,
          2584.0,
          2586.0,
          2586.0,
          2588.0,
          2589.0,
          2590.0,
          2587.0,
          2591.0,
          2600.0,
          2608.0,
          2603.0,
          2591.0,
          2587.0,
          2589.0,
          2591.0,
          2590.0,
          2587.0,
          2586.0,
          2586.0,
          2593.0,
          2595.0,
          2597.0,
          2592.0,
          2584.0,
          2588.0,
          2599.0,
          2609.0,
          2606.0,
          2598.0,
          2593.0,
          2592.0,
          2591.0,
          2592.0,
          2591.0,
          2590.0,
          2590.0,
          2588.0,
          2584.0,
          2587.0,
          2591.0,
          2583.0,
          2579.0,
          2582.0,
          2586.0,
          2585.0,
          2582.0,
          2581.0,
          2581.0,
          2580.0,
          2582.0,
