{
  "aor": 0.0026454878048780485,
  "aqi": 0.011588164695121951,
  "bids_meta": {
    "AcquisitionMatrixPE": 96,
    "AcquisitionNumber": 1,
    "AcquisitionTime": "11:31:0.550000",
    "BandwidthPerPixelPhaseEncode": 52.083,
    "BaseResolution": 96,
    "BodyPartExamined": "HEAD",
    "ConversionSoftware": "dcm2niix",
    "ConversionSoftwareVersion": "v1.0.20180622 GCC6.3.0",
    "DerivedVendorReportedEchoSpacing": 0.000600004,
    "DeviceSerialNumber": "18926",
    "DwellTime": 2.6e-06,
    "EchoTime": 0.025,
    "EffectiveEchoSpacing": 0.000200001,
    "FlipAngle": 50,
    "ImageOrientationPatientDICOM": [
      0.999992,
      0.000228905,
      0.00409774,
      1.99989e-10,
      0.998443,
      -0.0557745
    ],
    "ImageType": [
      "ORIGINAL",
      "PRIMARY",
      "M",
      "ND",
      "ECHO",
      "00",
      "MOSAIC"
    ],
    "InPlanePhaseEncodingDirectionDICOM": "ROW",
    "InstitutionName": "NIMH",
    "InstitutionalDepartmentName": "Department",
    "MRAcquisitionType": "2D",
    "MagneticFieldStrength": 6.98,
    "Manufacturer": "Siemens",
    "ManufacturersModelName": "Investigational_Device_7T",
    "Modality": "MR",
    "ParallelReductionFactorInPlane": 3,
    "PartialFourier": 1,
    "PatientPosition": "HFS",
    "PercentPhaseFOV": 100,
    "PhaseEncodingDirection": "i",
    "PhaseEncodingSteps": 94,
    "PhaseResolution": 1,
    "PixelBandwidth": 2003,
    "ProcedureStepDescription": "MRI_Procedure_Limited",
    "ProtocolName": "NIH_EPI_2.0iso_TR2_Run10",
    "PulseSequenceDetails": "%CustomerSeq%_inati_nih_epi",
    "ReceiveCoilName": "32Ch_Head_7T",
    "ReconMatrixPE": 96,
    "RepetitionTime": 2,
    "SAR": 0.0917494,
    "ScanningSequence": "EP",
    "SequenceName": "epfid2d1_96",
    "SequenceVariant": "SK",
    "SeriesDescription": "NIH_EPI_2.0iso_TR2_Run10",
    "SeriesNumber": 15,
    "ShimSetting": [
      -116,
      198,
      1010,
      2037,
      -170,
      849,
      901,
      -364
    ],
    "SliceThickness": 2,
    "SliceTiming": [
      1.005,
      0,
      1.0425,
      0.0375,
      1.08,
      0.075,
      1.1175,
      0.1125,
      1.1525,
      0.15,
      1.19,
      0.1875,
      1.2275,
      0.225,
      1.265,
      0.2625,
      1.3025,
      0.2975,
      1.34,
      0.335,
      1.3775,
      0.3725,
      1.415,
      0.41,
      1.45,
      0.4475,
      1.4875,
      0.485,
      1.525,
      0.5225,
      1.5625,
      0.56,
      1.6,
      0.595,
      1.6375,
      0.6325,
      1.675,
      0.67,
      1.7125,
      0.7075,
      1.7475,
      0.745,
      1.785,
      0.7825,
      1.8225,
      0.82,
      1.86,
      0.855,
      1.8975,
      0.8925,
      1.935,
      0.93,
      1.9725,
      0.9675
    ],
    "SoftwareVersions": "syngo_MR_B17",
    "SpacingBetweenSlices": 2,
    "StationName": "FMRIFD7T",
    "TaskName": "FullFovAttentionTask",
    "TotalReadoutTime": 0.0190001,
    "TxRefAmp": 278,
    "dataset": "ds001555",
    "dcmmeta_affine": [
      [
        -1.9999831914901733,
        3.999781894581389e-10,
        0.008208253420889378,
        95.76705169677734
      ],
      [
        -0.00045781099470332265,
        1.9968867301940918,
        -0.11154810339212418,
        -67.94931030273438
      ],
      [
        0.008195475675165653,
        0.11154904216527939,
        1.9968699216842651,
        -37.49588394165039
      ],
      [
        0.0,
        0.0,
        0.0,
        1.0
      ]
    ],
    "dcmmeta_reorient_transform": [
      [
        0.0,
        -1.0,
        0.0,
        95.0
      ],
      [
        1.0,
        0.0,
        0.0,
        0.0
      ],
      [
        0.0,
        0.0,
        1.0,
        0.0
      ],
      [
        0.0,
        0.0,
        0.0,
        1.0
      ]
    ],
    "dcmmeta_shape": [
      96,
      96,
      54,
      164
    ],
    "dcmmeta_slice_dim": 2,
    "dcmmeta_version": 0.6,
    "global": {
      "const": {
        "AcquisitionMatrix": [
          0,
          96,
          96,
          0
        ],
        "Allergies": "No Known Allergies",
        "AngioFlag": "N",
        "BitsAllocated": 16,
        "BitsStored": 12,
        "BodyPartExamined": "HEAD",
        "Columns": 768,
        "EchoNumbers": 1,
        "EchoTime": 25.0,
        "EchoTrainLength": 1,
        "FlipAngle": 50.0,
        "HighBit": 11,
        "ImageOrientationPatient": [
          0.99999157803714,
          0.00022890549908,
          0.00409773804192,
          1.999891e-10,
          0.99844338980486,
          -0.0557745224541
        ],
        "ImagePositionPatient": [
          -767.76139276693,
          -792.86271567672,
          7.8280730866619
        ],
        "ImageType": [
          "ORIGINAL",
          "PRIMARY",
          "M",
          "ND",
          "ECHO_00",
          "MOSAIC"
        ],
        "ImagedNucleus": "1H",
        "ImagingFrequency": 297.205088,
        "InPlanePhaseEncodingDirection": "ROW",
        "LargestImagePixelValue": 4095,
        "MRAcquisitionType": "2D",
        "MagneticFieldStrength": 6.98,
        "Manufacturer": "SIEMENS",
        "ManufacturerModelName": "Investigational_Device_7T",
        "Modality": "MR",
        "NumberOfAverages": 1.0,
        "NumberOfPhaseEncodingSteps": 94,
        "PercentPhaseFieldOfView": 100.0,
        "PercentSampling": 100.0,
        "PerformedProcedureStepStartTime": "101021.055000",
        "PhotometricInterpretation": "MONOCHROME2",
        "PixelBandwidth": 2003.0,
        "PixelRepresentation": 0,
        "PixelSpacing": [
          2.0,
          2.0
        ],
        "PositionReferenceIndicator": "",
        "ProcedureCodeSequence": [
          {
            "CodeMeaning": "MRI Procedure Limited",
            "CodeValue": "MI01491",
            "CodingSchemeDesignator": "USA Standard",
            "ContextIdentifier": "4000114368"
          }
        ],
        "ProtocolName": "NIH_EPI_2.0iso_TR2_Run10",
        "ReferencedStudySequence": [
          {
            "ReferencedSOPClassUID": "1.2.840.10008.3.1.2.3.1",
            "ReferencedSOPInstanceUID": "1.2.840.113564.9.1.2723958737.61.2.5000080179"
          }
        ],
        "RepetitionTime": 2000.0,
        "RequestedProcedureCodeSequence": [
          {
            "CodeMeaning": "MRI Procedure Limited",
            "CodeValue": "MI01491",
            "CodingSchemeDesignator": "USA Standard",
            "ContextIdentifier": "4000114368"
          }
        ],
        "RequestingService": "MHMI",
        "Rows": 768,
        "SAR": 0.09174936144599,
        "SamplesPerPixel": 1,
        "ScanningSequence": "EP",
        "SequenceName": "epfid2d1_96",
        "SequenceVariant": "SK",
        "SeriesDescription": "NIH_EPI_2.0iso_TR2_Run10",
        "SeriesNumber": 15,
        "SliceLocation": -33.254354983146,
        "SliceThickness": 2.0,
        "SmallestImagePixelValue": 0,
        "SoftwareVersions": "syngo MR B17",
        "SpacingBetweenSlices": 2.0000000076982,
        "TransmitCoilName": "32Ch_Head_7T",
        "VariableFlipAngleFlag": "N",
        "WindowCenterWidthExplanation": "Algo1",
        "dBdt": 0.0
      },
      "slices": {}
    },
    "modality": "bold",
    "run_id": 12,
    "session_id": "04",
    "subject_id": "003",
    "task_id": "FullFovAttentionTask",
    "time": {
      "samples": {
        "AcquisitionNumber": [
          1,
          2,
          3,
          4,
          5,
          6,
          7,
          8,
          9,
          10,
          11,
          12,
          13,
          14,
          15,
          16,
          17,
          18,
          19,
          20,
          21,
          22,
          23,
          24,
          25,
          26,
          27,
          28,
          29,
          30,
          31,
          32,
          33,
          34,
          35,
          36,
          37,
          38,
          39,
          40,
          41,
          42,
          43,
          44,
          45,
          46,
          47,
          48,
          49,
          50,
          51,
          52,
          53,
          54,
          55,
          56,
          57,
          58,
          59,
          60,
          61,
          62,
          63,
          64,
          65,
          66,
          67,
          68,
          69,
          70,
          71,
          72,
          73,
          74,
          75,
          76,
          77,
          78,
          79,
          80,
          81,
          82,
          83,
          84,
          85,
          86,
          87,
          88,
          89,
          90,
          91,
          92,
          93,
          94,
          95,
          96,
          97,
          98,
          99,
          100,
          101,
          102,
          103,
          104,
          105,
          106,
          107,
          108,
          109,
          110,
          111,
          112,
          113,
          114,
          115,
          116,
          117,
          118,
          119,
          120,
          121,
          122,
          123,
          124,
          125,
          126,
          127,
          128,
          129,
          130,
          131,
          132,
          133,
          134,
          135,
          136,
          137,
          138,
          139,
          140,
          141,
          142,
          143,
          144,
          145,
          146,
          147,
          148,
          149,
          150,
          151,
          152,
          153,
          154,
          155,
          156,
          157,
          158,
          159,
          160,
          161,
          162,
          163,
          164
        ],
        "AcquisitionTime": [
          "113100.550000",
          "113104.565000",
          "113106.575000",
          "113108.582500",
          "113110.590000",
          "113112.597500",
          "113114.605000",
          "113116.615000",
          "113118.622500",
          "113120.630000",
          "113122.637500",
          "113124.647500",
          "113126.655000",
          "113128.662500",
          "113130.670000",
          "113132.677500",
          "113134.687500",
          "113136.695000",
          "113138.702500",
          "113140.710000",
          "113142.717500",
          "113144.727500",
          "113146.735000",
          "113148.742500",
          "113150.750000",
          "113152.760000",
          "113154.767500",
          "113156.775000",
          "113158.782500",
          "113200.790000",
          "113202.800000",
          "113204.807500",
          "113206.815000",
          "113208.822500",
          "113210.830000",
          "113212.840000",
          "113214.847500",
          "113216.855000",
          "113218.862500",
          "113220.870000",
          "113222.880000",
          "113224.887500",
          "113226.895000",
          "113228.902500",
          "113230.912500",
          "113232.920000",
          "113234.927500",
          "113236.935000",
          "113238.942500",
          "113240.952500",
          "113242.960000",
          "113244.967500",
          "113246.975000",
          "113248.982500",
          "113250.992500",
          "113253.000000",
          "113255.007500",
          "113257.015000",
          "113259.025000",
          "113301.032500",
          "113303.040000",
          "113305.047500",
          "113307.055000",
          "113309.065000",
          "113311.072500",
          "113313.080000",
          "113315.087500",
          "113317.095000",
          "113319.105000",
          "113321.112500",
          "113323.120000",
          "113325.127500",
          "113327.137500",
          "113329.145000",
          "113331.152500",
          "113333.160000",
          "113335.167500",
          "113337.177500",
          "113339.185000",
          "113341.192500",
          "113343.200000",
          "113345.207500",
          "113347.217500",
          "113349.225000",
          "113351.232500",
          "113353.240000",
          "113355.250000",
          "113357.257500",
          "113359.265000",
          "113401.272500",
          "113403.280000",
          "113405.290000",
          "113407.297500",
          "113409.305000",
          "113411.312500",
          "113413.320000",
          "113415.330000",
          "113417.337500",
          "113419.345000",
          "113421.352500",
          "113423.360000",
          "113425.370000",
          "113427.377500",
          "113429.385000",
          "113431.392500",
          "113433.402500",
          "113435.410000",
          "113437.417500",
          "113439.425000",
          "113441.432500",
          "113443.442500",
          "113445.450000",
          "113447.457500",
          "113449.465000",
          "113451.472500",
          "113453.482500",
          "113455.490000",
          "113457.497500",
          "113459.505000",
          "113501.515000",
          "113503.522500",
          "113505.530000",
          "113507.537500",
          "113509.545000",
          "113511.555000",
          "113513.562500",
          "113515.570000",
          "113517.577500",
          "113519.585000",
          "113521.595000",
          "113523.602500",
          "113525.610000",
          "113527.617500",
          "113529.627500",
          "113531.635000",
          "113533.642500",
          "113535.650000",
          "113537.657500",
          "113539.667500",
          "113541.675000",
          "113543.682500",
          "113545.690000",
          "113547.697500",
          "113549.707500",
          "113551.715000",
          "113553.722500",
          "113555.730000",
          "113557.737500",
          "113559.747500",
          "113601.755000",
          "113603.762500",
          "113605.770000",
          "113607.780000",
          "113609.787500",
          "113611.795000",
          "113613.802500",
          "113615.810000",
          "113617.820000",
          "113619.827500",
          "113621.835000",
          "113623.842500",
          "113625.850000",
          "113627.860000",
          "113629.867500"
        ],
        "ContentTime": [
          "113147.898000",
          "113147.914000",
          "113147.914000",
          "113147.930000",
          "113147.930000",
          "113147.930000",
          "113147.930000",
          "113147.930000",
          "113147.930000",
          "113147.930000",
          "113147.945000",
          "113147.945000",
          "113147.945000",
          "113147.945000",
          "113147.945000",
          "113147.945000",
          "113147.945000",
          "113147.961000",
          "113147.961000",
          "113147.961000",
          "113147.961000",
          "113147.961000",
          "113227.898000",
          "113227.898000",
          "113227.914000",
          "113227.914000",
          "113227.914000",
          "113227.914000",
          "113227.914000",
          "113227.914000",
          "113227.914000",
          "113227.930000",
          "113227.930000",
          "113227.930000",
          "113227.930000",
          "113227.930000",
          "113227.945000",
          "113227.945000",
          "113227.945000",
          "113227.945000",
          "113227.945000",
          "113227.945000",
          "113307.898000",
          "113307.898000",
          "113307.898000",
          "113307.914000",
          "113307.914000",
          "113307.914000",
          "113307.914000",
          "113307.914000",
          "113307.930000",
          "113307.930000",
          "113307.930000",
          "113307.930000",
          "113307.930000",
          "113307.930000",
          "113307.930000",
          "113307.945000",
          "113307.945000",
          "113307.945000",
          "113307.945000",
          "113307.945000",
          "113327.898000",
          "113327.898000",
          "113327.914000",
          "113327.914000",
          "113327.914000",
          "113327.914000",
          "113327.914000",
          "113327.914000",
          "113327.930000",
          "113327.930000",
          "113407.898000",
          "113407.898000",
          "113407.898000",
          "113407.898000",
          "113407.898000",
          "113407.914000",
          "113407.914000",
          "113407.914000",
          "113407.914000",
          "113407.914000",
          "113407.930000",
          "113407.930000",
          "113407.930000",
          "113407.945000",
          "113407.945000",
          "113407.945000",
          "113407.945000",
          "113407.945000",
          "113407.945000",
          "113407.945000",
          "113447.898000",
          "113447.898000",
          "113447.898000",
          "113447.898000",
          "113447.898000",
          "113447.914000",
          "113447.914000",
          "113447.914000",
          "113447.914000",
          "113447.914000",
          "113447.914000",
          "113447.914000",
          "113447.930000",
          "113447.930000",
          "113447.930000",
          "113447.930000",
          "113447.930000",
          "113447.930000",
          "113447.945000",
          "113447.945000",
          "113527.898000",
          "113527.898000",
          "113527.898000",
          "113527.898000",
          "113527.898000",
          "113527.914000",
          "113527.914000",
          "113527.914000",
          "113527.914000",
          "113527.914000",
          "113527.914000",
          "113527.914000",
          "113527.930000",
          "113527.930000",
          "113527.930000",
          "113527.930000",
          "113527.930000",
          "113527.930000",
          "113527.945000",
          "113527.945000",
          "113607.898000",
          "113607.898000",
          "113607.898000",
          "113607.898000",
          "113607.898000",
          "113607.914000",
          "113607.914000",
          "113607.914000",
          "113607.914000",
          "113607.930000",
          "113607.930000",
          "113607.930000",
          "113607.930000",
          "113607.930000",
          "113607.930000",
          "113607.945000",
          "113607.945000",
          "113607.945000",
          "113607.945000",
          "113607.945000",
          "113629.992000",
          "113629.992000",
          "113629.992000",
          "113630.008000",
          "113630.008000",
          "113630.008000",
          "113630.023000",
          "113630.023000",
          "113630.023000",
          "113630.023000",
          "113630.023000",
          "113630.023000"
        ],
        "InstanceCreationTime": [
          "113147.898000",
          "113147.914000",
          "113147.914000",
          "113147.930000",
          "113147.930000",
          "113147.930000",
          "113147.930000",
          "113147.930000",
          "113147.930000",
          "113147.930000",
          "113147.945000",
          "113147.945000",
          "113147.945000",
          "113147.945000",
          "113147.945000",
          "113147.945000",
          "113147.945000",
          "113147.961000",
          "113147.961000",
          "113147.961000",
          "113147.961000",
          "113147.961000",
          "113227.898000",
          "113227.898000",
          "113227.914000",
          "113227.914000",
          "113227.914000",
          "113227.914000",
          "113227.914000",
          "113227.914000",
          "113227.914000",
          "113227.930000",
          "113227.930000",
          "113227.930000",
          "113227.930000",
          "113227.930000",
          "113227.945000",
          "113227.945000",
          "113227.945000",
          "113227.945000",
          "113227.945000",
          "113227.945000",
          "113307.898000",
          "113307.898000",
          "113307.898000",
          "113307.914000",
          "113307.914000",
          "113307.914000",
          "113307.914000",
          "113307.914000",
          "113307.930000",
          "113307.930000",
          "113307.930000",
          "113307.930000",
          "113307.930000",
          "113307.930000",
          "113307.930000",
          "113307.945000",
          "113307.945000",
          "113307.945000",
          "113307.945000",
          "113307.945000",
          "113327.898000",
          "113327.898000",
          "113327.914000",
          "113327.914000",
          "113327.914000",
          "113327.914000",
          "113327.914000",
          "113327.914000",
          "113327.930000",
          "113327.930000",
          "113407.898000",
          "113407.898000",
          "113407.898000",
          "113407.898000",
          "113407.898000",
          "113407.914000",
          "113407.914000",
          "113407.914000",
          "113407.914000",
          "113407.914000",
          "113407.930000",
          "113407.930000",
          "113407.930000",
          "113407.945000",
          "113407.945000",
          "113407.945000",
          "113407.945000",
          "113407.945000",
          "113407.945000",
          "113407.945000",
          "113447.898000",
          "113447.898000",
          "113447.898000",
          "113447.898000",
          "113447.898000",
          "113447.914000",
          "113447.914000",
          "113447.914000",
          "113447.914000",
          "113447.914000",
          "113447.914000",
          "113447.914000",
          "113447.930000",
          "113447.930000",
          "113447.930000",
          "113447.930000",
          "113447.930000",
          "113447.930000",
          "113447.945000",
          "113447.945000",
          "113527.898000",
          "113527.898000",
          "113527.898000",
          "113527.898000",
          "113527.898000",
          "113527.914000",
          "113527.914000",
          "113527.914000",
          "113527.914000",
          "113527.914000",
          "113527.914000",
          "113527.914000",
          "113527.930000",
          "113527.930000",
          "113527.930000",
          "113527.930000",
          "113527.930000",
          "113527.930000",
          "113527.945000",
          "113527.945000",
          "113607.898000",
          "113607.898000",
          "113607.898000",
          "113607.898000",
          "113607.898000",
          "113607.914000",
          "113607.914000",
          "113607.914000",
          "113607.914000",
          "113607.930000",
          "113607.930000",
          "113607.930000",
          "113607.930000",
          "113607.930000",
          "113607.930000",
          "113607.945000",
          "113607.945000",
          "113607.945000",
          "113607.945000",
          "113607.945000",
          "113629.992000",
          "113629.992000",
          "113629.992000",
          "113630.008000",
          "113630.008000",
          "113630.008000",
          "113630.023000",
          "113630.023000",
          "113630.023000",
          "113630.023000",
          "113630.023000",
          "113630.023000"
        ],
        "InstanceNumber": [
          1,
          2,
          3,
          4,
          5,
          6,
          7,
          8,
          9,
          10,
          11,
          12,
          13,
          14,
          15,
          16,
          17,
          18,
          19,
          20,
          21,
          22,
          23,
          24,
          25,
          26,
          27,
          28,
          29,
          30,
          31,
          32,
          33,
          34,
          35,
          36,
          37,
          38,
          39,
          40,
          41,
          42,
          43,
          44,
          45,
          46,
          47,
          48,
          49,
          50,
          51,
          52,
          53,
          54,
          55,
          56,
          57,
          58,
          59,
          60,
          61,
          62,
          63,
          64,
          65,
          66,
          67,
          68,
          69,
          70,
          71,
          72,
          73,
          74,
          75,
          76,
          77,
          78,
          79,
          80,
          81,
          82,
          83,
          84,
          85,
          86,
          87,
          88,
          89,
          90,
          91,
          92,
          93,
          94,
          95,
          96,
          97,
          98,
          99,
          100,
          101,
          102,
          103,
          104,
          105,
          106,
          107,
          108,
          109,
          110,
          111,
          112,
          113,
          114,
          115,
          116,
          117,
          118,
          119,
          120,
          121,
          122,
          123,
          124,
          125,
          126,
          127,
          128,
          129,
          130,
          131,
          132,
          133,
          134,
          135,
          136,
          137,
          138,
          139,
          140,
          141,
          142,
          143,
          144,
          145,
          146,
          147,
          148,
          149,
          150,
          151,
          152,
          153,
          154,
          155,
          156,
          157,
          158,
          159,
          160,
          161,
          162,
          163,
          164
        ],
        "WindowCenter": [
          953.0,
          953.0,
          953.0,
          953.0,
          953.0,
          954.0,
          955.0,
          954.0,
          953.0,
          953.0,
          953.0,
          954.0,
          954.0,
          953.0,
          955.0,
          954.0,
          954.0,
          953.0,
          953.0,
          954.0,
          954.0,
          954.0,
          954.0,
          954.0,
          953.0,
          955.0,
          954.0,
          954.0,
          953.0,
          953.0,
          952.0,
          952.0,
          953.0,
          952.0,
          953.0,
          953.0,
          953.0,
          953.0,
          953.0,
          952.0,
          952.0,
          951.0,
          952.0,
          953.0,
          953.0,
          953.0,
          953.0,
          953.0,
          955.0,
          954.0,
          953.0,
          954.0,
          952.0,
          952.0,
          953.0,
          953.0,
          952.0,
          953.0,
          953.0,
          953.0,
          953.0,
          954.0,
          954.0,
          954.0,
          954.0,
          954.0,
          953.0,
          952.0,
          953.0,
          952.0,
          952.0,
          952.0,
          951.0,
          951.0,
          951.0,
          952.0,
          951.0,
          951.0,
          951.0,
          951.0,
          952.0,
          952.0,
          951.0,
          950.0,
          951.0,
          950.0,
          950.0,
          952.0,
          951.0,
          951.0,
          950.0,
          950.0,
          950.0,
          950.0,
          949.0,
          949.0,
          950.0,
          950.0,
          951.0,
          951.0,
          950.0,
          950.0,
          950.0,
          951.0,
          951.0,
          952.0,
          950.0,
          951.0,
          951.0,
          950.0,
          950.0,
          951.0,
          951.0,
          950.0,
          950.0,
          950.0,
          950.0,
          951.0,
          951.0,
          951.0,
          950.0,
          950.0,
          950.0,
          951.0,
          951.0,
          951.0,
          951.0,
          950.0,
          949.0,
          950.0,
          951.0,
          950.0,
          950.0,
          949.0,
          949.0,
          950.0,
          951.0,
          952.0,
          952.0,
          951.0,
          951.0,
          951.0,
          952.0,
          951.0,
          952.0,
          951.0,
          951.0,
          951.0,
          951.0,
          951.0,
          952.0,
          952.0,
          951.0,
          951.0,
          951.0,
          951.0,
          951.0,
          952.0,
          952.0,
          952.0,
          952.0,
          951.0,
          952.0,
          952.0
        ],
        "WindowWidth": [
          2582.0,
          2582.0,
          2581.0,
          2577.0,
          2582.0,
          2586.0,
          2590.0,
          2591.0,
          2585.0,
          2579.0,
          2580.0,
          2582.0,
          2584.0,
          2589.0,
          2591.0,
          2587.0,
          2582.0,
          2583.0,
          2584.0,
          2584.0,
          2588.0,
          2588.0,
          2583.0,
          2580.0,
          2583.0,
          2589.0,
          2588.0,
          2588.0,
          2586.0,
          2582.0,
          2581.0,
          2580.0,
          2583.0,
          2584.0,
          2581.0,
          2584.0,
          2587.0,
          2588.0,
          2587.0,
          2588.0,
          2589.0,
          2588.0,
          2585.0,
          2587.0,
          2587.0,
          2586.0,
          2590.0,
          2591.0,
          2591.0,
          2586.0,
          2582.0,
          2579.0,
          2579.0,
          2581.0,
          2579.0,
          2581.0,
          2581.0,
          2584.0,
          2586.0,
          2595.0,
          2598.0,
          2601.0,
          2599.0,
          2595.0,
          2594.0,
          2594.0,
          2592.0,
          2589.0,
          2585.0,
          2585.0,
          2582.0,
          2577.0,
          2574.0,
          2576.0,
          2585.0,
          2586.0,
          2579.0,
          2571.0,
          2568.0,
          2568.0,
          2573.0,
          2574.0,
          2572.0,
          2569.0,
          2570.0,
          2570.0,
          2573.0,
          2576.0,
          2577.0,
          2575.0,
          2572.0,
