{
  "aor": 0.0014767682926829268,
  "aqi": 0.00816770182926829,
  "bids_meta": {
    "AcquisitionMatrixPE": 96,
    "AcquisitionNumber": 1,
    "AcquisitionTime": "11:10:32.300000",
    "BandwidthPerPixelPhaseEncode": 52.083,
    "BaseResolution": 96,
    "BodyPartExamined": "HEAD",
    "ConversionSoftware": "dcm2niix",
    "ConversionSoftwareVersion": "v1.0.20180622 GCC6.3.0",
    "DerivedVendorReportedEchoSpacing": 0.000600004,
    "DeviceSerialNumber": "18926",
    "DwellTime": 2.6e-06,
    "EchoTime": 0.025,
    "EffectiveEchoSpacing": 0.000200001,
    "FlipAngle": 50,
    "ImageOrientationPatientDICOM": [
      0.999992,
      0.000228905,
      0.00409774,
      1.99989e-10,
      0.998443,
      -0.0557745
    ],
    "ImageType": [
      "ORIGINAL",
      "PRIMARY",
      "M",
      "ND",
      "ECHO",
      "00",
      "MOSAIC"
    ],
    "InPlanePhaseEncodingDirectionDICOM": "ROW",
    "InstitutionName": "NIMH",
    "InstitutionalDepartmentName": "Department",
    "MRAcquisitionType": "2D",
    "MagneticFieldStrength": 6.98,
    "Manufacturer": "Siemens",
    "ManufacturersModelName": "Investigational_Device_7T",
    "Modality": "MR",
    "ParallelReductionFactorInPlane": 3,
    "PartialFourier": 1,
    "PatientPosition": "HFS",
    "PercentPhaseFOV": 100,
    "PhaseEncodingDirection": "i",
    "PhaseEncodingSteps": 94,
    "PhaseResolution": 1,
    "PixelBandwidth": 2003,
    "ProcedureStepDescription": "MRI_Procedure_Limited",
    "ProtocolName": "NIH_EPI_2.0iso_TR2_Run07",
    "PulseSequenceDetails": "%CustomerSeq%_inati_nih_epi",
    "ReceiveCoilName": "32Ch_Head_7T",
    "ReconMatrixPE": 96,
    "RepetitionTime": 2,
    "SAR": 0.0917494,
    "ScanningSequence": "EP",
    "SequenceName": "epfid2d1_96",
    "SequenceVariant": "SK",
    "SeriesDescription": "NIH_EPI_2.0iso_TR2_Run07",
    "SeriesNumber": 12,
    "ShimSetting": [
      -116,
      198,
      1010,
      2037,
      -170,
      849,
      901,
      -364
    ],
    "SliceThickness": 2,
    "SliceTiming": [
      1.005,
      0,
      1.04,
      0.0375,
      1.0775,
      0.075,
      1.115,
      0.1125,
      1.1525,
      0.15,
      1.19,
      0.185,
      1.2275,
      0.2225,
      1.265,
      0.26,
      1.3025,
      0.2975,
      1.3375,
      0.335,
      1.375,
      0.3725,
      1.4125,
      0.41,
      1.45,
      0.4475,
      1.4875,
      0.4825,
      1.525,
      0.52,
      1.5625,
      0.5575,
      1.6,
      0.595,
      1.635,
      0.6325,
      1.6725,
      0.67,
      1.71,
      0.7075,
      1.7475,
      0.745,
      1.785,
      0.78,
      1.8225,
      0.8175,
      1.86,
      0.855,
      1.8975,
      0.8925,
      1.9325,
      0.93,
      1.97,
      0.9675
    ],
    "SoftwareVersions": "syngo_MR_B17",
    "SpacingBetweenSlices": 2,
    "StationName": "FMRIFD7T",
    "TaskName": "FullFovAttentionTask",
    "TotalReadoutTime": 0.0190001,
    "TxRefAmp": 278,
    "dataset": "ds001555",
    "dcmmeta_affine": [
      [
        -1.9999831914901733,
        3.999781894581389e-10,
        0.008208253420889378,
        95.76705169677734
      ],
      [
        -0.00045781099470332265,
        1.9968867301940918,
        -0.11154810339212418,
        -67.94931030273438
      ],
      [
        0.008195475675165653,
        0.11154904216527939,
        1.9968699216842651,
        -37.49588394165039
      ],
      [
        0.0,
        0.0,
        0.0,
        1.0
      ]
    ],
    "dcmmeta_reorient_transform": [
      [
        0.0,
        -1.0,
        0.0,
        95.0
      ],
      [
        1.0,
        0.0,
        0.0,
        0.0
      ],
      [
        0.0,
        0.0,
        1.0,
        0.0
      ],
      [
        0.0,
        0.0,
        0.0,
        1.0
      ]
    ],
    "dcmmeta_shape": [
      96,
      96,
      54,
      164
    ],
    "dcmmeta_slice_dim": 2,
    "dcmmeta_version": 0.6,
    "global": {
      "const": {
        "AcquisitionMatrix": [
          0,
          96,
          96,
          0
        ],
        "Allergies": "No Known Allergies",
        "AngioFlag": "N",
        "BitsAllocated": 16,
        "BitsStored": 12,
        "BodyPartExamined": "HEAD",
        "Columns": 768,
        "EchoNumbers": 1,
        "EchoTime": 25.0,
        "EchoTrainLength": 1,
        "FlipAngle": 50.0,
        "HighBit": 11,
        "ImageOrientationPatient": [
          0.99999157803714,
          0.00022890549908,
          0.00409773804192,
          1.999891e-10,
          0.99844338980486,
          -0.0557745224541
        ],
        "ImagePositionPatient": [
          -767.76139276693,
          -792.86271567672,
          7.8280730866619
        ],
        "ImageType": [
          "ORIGINAL",
          "PRIMARY",
          "M",
          "ND",
          "ECHO_00",
          "MOSAIC"
        ],
        "ImagedNucleus": "1H",
        "ImagingFrequency": 297.205034,
        "InPlanePhaseEncodingDirection": "ROW",
        "LargestImagePixelValue": 4095,
        "MRAcquisitionType": "2D",
        "MagneticFieldStrength": 6.98,
        "Manufacturer": "SIEMENS",
        "ManufacturerModelName": "Investigational_Device_7T",
        "Modality": "MR",
        "NumberOfAverages": 1.0,
        "NumberOfPhaseEncodingSteps": 94,
        "PercentPhaseFieldOfView": 100.0,
        "PercentSampling": 100.0,
        "PerformedProcedureStepStartTime": "101021.055000",
        "PhotometricInterpretation": "MONOCHROME2",
        "PixelBandwidth": 2003.0,
        "PixelRepresentation": 0,
        "PixelSpacing": [
          2.0,
          2.0
        ],
        "PositionReferenceIndicator": "",
        "ProcedureCodeSequence": [
          {
            "CodeMeaning": "MRI Procedure Limited",
            "CodeValue": "MI01491",
            "CodingSchemeDesignator": "USA Standard",
            "ContextIdentifier": "4000114368"
          }
        ],
        "ProtocolName": "NIH_EPI_2.0iso_TR2_Run07",
        "ReferencedStudySequence": [
          {
            "ReferencedSOPClassUID": "1.2.840.10008.3.1.2.3.1",
            "ReferencedSOPInstanceUID": "1.2.840.113564.9.1.2723958737.61.2.5000080179"
          }
        ],
        "RepetitionTime": 2000.0,
        "RequestedProcedureCodeSequence": [
          {
            "CodeMeaning": "MRI Procedure Limited",
            "CodeValue": "MI01491",
            "CodingSchemeDesignator": "USA Standard",
            "ContextIdentifier": "4000114368"
          }
        ],
        "RequestingService": "MHMI",
        "Rows": 768,
        "SAR": 0.09174936144599,
        "SamplesPerPixel": 1,
        "ScanningSequence": "EP",
        "SequenceName": "epfid2d1_96",
        "SequenceVariant": "SK",
        "SeriesDescription": "NIH_EPI_2.0iso_TR2_Run07",
        "SeriesNumber": 12,
        "SliceLocation": -33.254354983146,
        "SliceThickness": 2.0,
        "SmallestImagePixelValue": 0,
        "SoftwareVersions": "syngo MR B17",
        "SpacingBetweenSlices": 2.0000000076982,
        "TransmitCoilName": "32Ch_Head_7T",
        "VariableFlipAngleFlag": "N",
        "WindowCenterWidthExplanation": "Algo1",
        "dBdt": 0.0
      },
      "slices": {}
    },
    "modality": "bold",
    "run_id": 9,
    "session_id": "04",
    "subject_id": "003",
    "task_id": "FullFovAttentionTask",
    "time": {
      "samples": {
        "AcquisitionNumber": [
          1,
          2,
          3,
          4,
          5,
          6,
          7,
          8,
          9,
          10,
          11,
          12,
          13,
          14,
          15,
          16,
          17,
          18,
          19,
          20,
          21,
          22,
          23,
          24,
          25,
          26,
          27,
          28,
          29,
          30,
          31,
          32,
          33,
          34,
          35,
          36,
          37,
          38,
          39,
          40,
          41,
          42,
          43,
          44,
          45,
          46,
          47,
          48,
          49,
          50,
          51,
          52,
          53,
          54,
          55,
          56,
          57,
          58,
          59,
          60,
          61,
          62,
          63,
          64,
          65,
          66,
          67,
          68,
          69,
          70,
          71,
          72,
          73,
          74,
          75,
          76,
          77,
          78,
          79,
          80,
          81,
          82,
          83,
          84,
          85,
          86,
          87,
          88,
          89,
          90,
          91,
          92,
          93,
          94,
          95,
          96,
          97,
          98,
          99,
          100,
          101,
          102,
          103,
          104,
          105,
          106,
          107,
          108,
          109,
          110,
          111,
          112,
          113,
          114,
          115,
          116,
          117,
          118,
          119,
          120,
          121,
          122,
          123,
          124,
          125,
          126,
          127,
          128,
          129,
          130,
          131,
          132,
          133,
          134,
          135,
          136,
          137,
          138,
          139,
          140,
          141,
          142,
          143,
          144,
          145,
          146,
          147,
          148,
          149,
          150,
          151,
          152,
          153,
          154,
          155,
          156,
          157,
          158,
          159,
          160,
          161,
          162,
          163,
          164
        ],
        "AcquisitionTime": [
          "111032.300000",
          "111036.315000",
          "111038.322500",
          "111040.330000",
          "111042.340000",
          "111044.347500",
          "111046.355000",
          "111048.362500",
          "111050.372500",
          "111052.380000",
          "111054.387500",
          "111056.395000",
          "111058.402500",
          "111100.412500",
          "111102.420000",
          "111104.427500",
          "111106.435000",
          "111108.442500",
          "111110.452500",
          "111112.460000",
          "111114.467500",
          "111116.475000",
          "111118.485000",
          "111120.492500",
          "111122.500000",
          "111124.507500",
          "111126.515000",
          "111128.525000",
          "111130.532500",
          "111132.540000",
          "111134.547500",
          "111136.555000",
          "111138.565000",
          "111140.572500",
          "111142.580000",
          "111144.587500",
          "111146.595000",
          "111148.605000",
          "111150.612500",
          "111152.620000",
          "111154.627500",
          "111156.637500",
          "111158.645000",
          "111200.652500",
          "111202.660000",
          "111204.667500",
          "111206.677500",
          "111208.685000",
          "111210.692500",
          "111212.700000",
          "111214.707500",
          "111216.717500",
          "111218.725000",
          "111220.732500",
          "111222.740000",
          "111224.750000",
          "111226.757500",
          "111228.765000",
          "111230.772500",
          "111232.780000",
          "111234.790000",
          "111236.797500",
          "111238.805000",
          "111240.812500",
          "111242.820000",
          "111244.830000",
          "111246.837500",
          "111248.845000",
          "111250.852500",
          "111252.862500",
          "111254.870000",
          "111256.877500",
          "111258.885000",
          "111300.892500",
          "111302.902500",
          "111304.910000",
          "111306.917500",
          "111308.925000",
          "111310.932500",
          "111312.942500",
          "111314.950000",
          "111316.957500",
          "111318.965000",
          "111320.972500",
          "111322.982500",
          "111324.990000",
          "111326.997500",
          "111329.005000",
          "111331.015000",
          "111333.022500",
          "111335.030000",
          "111337.037500",
          "111339.045000",
          "111341.055000",
          "111343.062500",
          "111345.070000",
          "111347.077500",
          "111349.085000",
          "111351.095000",
          "111353.102500",
          "111355.110000",
          "111357.117500",
          "111359.127500",
          "111401.135000",
          "111403.142500",
          "111405.150000",
          "111407.157500",
          "111409.167500",
          "111411.175000",
          "111413.182500",
          "111415.190000",
          "111417.197500",
          "111419.207500",
          "111421.215000",
          "111423.222500",
          "111425.230000",
          "111427.240000",
          "111429.247500",
          "111431.255000",
          "111433.262500",
          "111435.270000",
          "111437.280000",
          "111439.287500",
          "111441.295000",
          "111443.302500",
          "111445.310000",
          "111447.320000",
          "111449.327500",
          "111451.335000",
          "111453.342500",
          "111455.350000",
          "111457.360000",
          "111459.367500",
          "111501.375000",
          "111503.382500",
          "111505.392500",
          "111507.400000",
          "111509.407500",
          "111511.415000",
          "111513.422500",
          "111515.432500",
          "111517.440000",
          "111519.447500",
          "111521.455000",
          "111523.462500",
          "111525.472500",
          "111527.480000",
          "111529.487500",
          "111531.495000",
          "111533.505000",
          "111535.512500",
          "111537.520000",
          "111539.527500",
          "111541.535000",
          "111543.545000",
          "111545.552500",
          "111547.560000",
          "111549.567500",
          "111551.575000",
          "111553.585000",
          "111555.592500",
          "111557.600000",
          "111559.607500",
          "111601.617500"
        ],
        "ContentTime": [
          "111127.914000",
          "111127.914000",
          "111127.914000",
          "111127.914000",
          "111127.914000",
          "111127.930000",
          "111127.930000",
          "111127.930000",
          "111127.930000",
          "111127.930000",
          "111127.930000",
          "111127.945000",
          "111127.945000",
          "111127.945000",
          "111127.945000",
          "111127.945000",
          "111127.945000",
          "111127.945000",
          "111127.961000",
          "111127.961000",
          "111127.961000",
          "111127.976000",
          "111127.976000",
          "111127.976000",
          "111127.992000",
          "111127.992000",
          "111207.898000",
          "111207.898000",
          "111207.898000",
          "111207.898000",
          "111207.914000",
          "111207.914000",
          "111207.914000",
          "111207.914000",
          "111207.914000",
          "111207.914000",
          "111207.914000",
          "111207.930000",
          "111207.930000",
          "111207.930000",
          "111207.930000",
          "111207.930000",
          "111207.930000",
          "111207.945000",
          "111207.945000",
          "111207.945000",
          "111247.898000",
          "111247.898000",
          "111247.898000",
          "111247.898000",
          "111247.914000",
          "111247.914000",
          "111247.914000",
          "111247.914000",
          "111247.914000",
          "111247.914000",
          "111247.914000",
          "111247.930000",
          "111247.930000",
          "111247.930000",
          "111247.930000",
          "111247.930000",
          "111247.930000",
          "111247.945000",
          "111247.945000",
          "111247.945000",
          "111327.898000",
          "111327.914000",
          "111327.914000",
          "111327.914000",
          "111327.914000",
          "111327.914000",
          "111327.930000",
          "111327.930000",
          "111327.930000",
          "111327.930000",
          "111327.945000",
          "111327.945000",
          "111327.945000",
          "111327.945000",
          "111327.961000",
          "111327.961000",
          "111327.961000",
          "111327.961000",
          "111328.117000",
          "111328.117000",
          "111407.898000",
          "111407.898000",
          "111407.898000",
          "111407.898000",
          "111407.898000",
          "111407.914000",
          "111407.914000",
          "111407.914000",
          "111407.914000",
          "111407.914000",
          "111407.914000",
          "111407.914000",
          "111407.930000",
          "111407.930000",
          "111407.930000",
          "111407.930000",
          "111407.930000",
          "111407.930000",
          "111407.945000",
          "111407.945000",
          "111447.898000",
          "111447.898000",
          "111447.898000",
          "111447.898000",
          "111447.898000",
          "111447.914000",
          "111447.914000",
          "111447.914000",
          "111447.914000",
          "111447.914000",
          "111447.914000",
          "111447.914000",
          "111447.930000",
          "111447.930000",
          "111447.930000",
          "111447.930000",
          "111447.930000",
          "111447.945000",
          "111447.945000",
          "111447.945000",
          "111527.898000",
          "111527.898000",
          "111527.898000",
          "111527.898000",
          "111527.898000",
          "111527.914000",
          "111527.914000",
          "111527.914000",
          "111527.914000",
          "111527.930000",
          "111527.930000",
          "111527.930000",
          "111527.930000",
          "111527.930000",
          "111527.930000",
          "111527.945000",
          "111527.945000",
          "111527.945000",
          "111527.945000",
          "111527.945000",
          "111602.008000",
          "111602.008000",
          "111602.008000",
          "111602.008000",
          "111602.023000",
          "111602.023000",
          "111602.023000",
          "111602.023000",
          "111602.023000",
          "111602.023000",
          "111602.039000",
          "111602.039000",
          "111602.039000",
          "111602.039000",
          "111602.039000",
          "111602.039000",
          "111602.055000",
          "111602.055000"
        ],
        "InstanceCreationTime": [
          "111127.914000",
          "111127.914000",
          "111127.914000",
          "111127.914000",
          "111127.914000",
          "111127.930000",
          "111127.930000",
          "111127.930000",
          "111127.930000",
          "111127.930000",
          "111127.930000",
          "111127.945000",
          "111127.945000",
          "111127.945000",
          "111127.945000",
          "111127.945000",
          "111127.945000",
          "111127.945000",
          "111127.961000",
          "111127.961000",
          "111127.961000",
          "111127.976000",
          "111127.976000",
          "111127.976000",
          "111127.992000",
          "111127.992000",
          "111207.898000",
          "111207.898000",
          "111207.898000",
          "111207.898000",
          "111207.914000",
          "111207.914000",
          "111207.914000",
          "111207.914000",
          "111207.914000",
          "111207.914000",
          "111207.914000",
          "111207.930000",
          "111207.930000",
          "111207.930000",
          "111207.930000",
          "111207.930000",
          "111207.930000",
          "111207.945000",
          "111207.945000",
          "111207.945000",
          "111247.898000",
          "111247.898000",
          "111247.898000",
          "111247.898000",
          "111247.914000",
          "111247.914000",
          "111247.914000",
          "111247.914000",
          "111247.914000",
          "111247.914000",
          "111247.914000",
          "111247.930000",
          "111247.930000",
          "111247.930000",
          "111247.930000",
          "111247.930000",
          "111247.930000",
          "111247.945000",
          "111247.945000",
          "111247.945000",
          "111327.898000",
          "111327.914000",
          "111327.914000",
          "111327.914000",
          "111327.914000",
          "111327.914000",
          "111327.930000",
          "111327.930000",
          "111327.930000",
          "111327.930000",
          "111327.945000",
          "111327.945000",
          "111327.945000",
          "111327.945000",
          "111327.961000",
          "111327.961000",
          "111327.961000",
          "111327.961000",
          "111328.117000",
          "111328.117000",
          "111407.898000",
          "111407.898000",
          "111407.898000",
          "111407.898000",
          "111407.898000",
          "111407.914000",
          "111407.914000",
          "111407.914000",
          "111407.914000",
          "111407.914000",
          "111407.914000",
          "111407.914000",
          "111407.930000",
          "111407.930000",
          "111407.930000",
          "111407.930000",
          "111407.930000",
          "111407.930000",
          "111407.945000",
          "111407.945000",
          "111447.898000",
          "111447.898000",
          "111447.898000",
          "111447.898000",
          "111447.898000",
          "111447.914000",
          "111447.914000",
          "111447.914000",
          "111447.914000",
          "111447.914000",
          "111447.914000",
          "111447.914000",
          "111447.930000",
          "111447.930000",
          "111447.930000",
          "111447.930000",
          "111447.930000",
          "111447.945000",
          "111447.945000",
          "111447.945000",
          "111527.898000",
          "111527.898000",
          "111527.898000",
          "111527.898000",
          "111527.898000",
          "111527.914000",
          "111527.914000",
          "111527.914000",
          "111527.914000",
          "111527.930000",
          "111527.930000",
          "111527.930000",
          "111527.930000",
          "111527.930000",
          "111527.930000",
          "111527.945000",
          "111527.945000",
          "111527.945000",
          "111527.945000",
          "111527.945000",
          "111602.008000",
          "111602.008000",
          "111602.008000",
          "111602.008000",
          "111602.023000",
          "111602.023000",
          "111602.023000",
          "111602.023000",
          "111602.023000",
          "111602.023000",
          "111602.039000",
          "111602.039000",
          "111602.039000",
          "111602.039000",
          "111602.039000",
          "111602.039000",
          "111602.055000",
          "111602.055000"
        ],
        "InstanceNumber": [
          1,
          2,
          3,
          4,
          5,
          6,
          7,
          8,
          9,
          10,
          11,
          12,
          13,
          14,
          15,
          16,
          17,
          18,
          19,
          20,
          21,
          22,
          23,
          24,
          25,
          26,
          27,
          28,
          29,
          30,
          31,
          32,
          33,
          34,
          35,
          36,
          37,
          38,
          39,
          40,
          41,
          42,
          43,
          44,
          45,
          46,
          47,
          48,
          49,
          50,
          51,
          52,
          53,
          54,
          55,
          56,
          57,
          58,
          59,
          60,
          61,
          62,
          63,
          64,
          65,
          66,
          67,
          68,
          69,
          70,
          71,
          72,
          73,
          74,
          75,
          76,
          77,
          78,
          79,
          80,
          81,
          82,
          83,
          84,
          85,
          86,
          87,
          88,
          89,
          90,
          91,
          92,
          93,
          94,
          95,
          96,
          97,
          98,
          99,
          100,
          101,
          102,
          103,
          104,
          105,
          106,
          107,
          108,
          109,
          110,
          111,
          112,
          113,
          114,
          115,
          116,
          117,
          118,
          119,
          120,
          121,
          122,
          123,
          124,
          125,
          126,
          127,
          128,
          129,
          130,
          131,
          132,
          133,
          134,
          135,
          136,
          137,
          138,
          139,
          140,
          141,
          142,
          143,
          144,
          145,
          146,
          147,
          148,
          149,
          150,
          151,
          152,
          153,
          154,
          155,
          156,
          157,
          158,
          159,
          160,
          161,
          162,
          163,
          164
        ],
        "WindowCenter": [
          957.0,
          957.0,
          957.0,
          957.0,
          956.0,
          956.0,
          957.0,
          957.0,
          957.0,
          957.0,
          957.0,
          957.0,
          957.0,
          958.0,
          958.0,
          958.0,
          958.0,
          957.0,
          957.0,
          958.0,
          958.0,
          958.0,
          958.0,
          959.0,
          958.0,
          958.0,
          957.0,
          957.0,
          957.0,
          957.0,
          957.0,
          959.0,
          958.0,
          958.0,
          958.0,
          958.0,
          959.0,
          958.0,
          957.0,
          957.0,
          957.0,
          957.0,
          957.0,
          957.0,
          956.0,
          955.0,
          957.0,
          957.0,
          956.0,
          957.0,
          957.0,
          957.0,
          957.0,
          957.0,
          957.0,
          957.0,
          957.0,
          957.0,
          957.0,
          957.0,
          957.0,
          957.0,
          957.0,
          956.0,
          957.0,
          957.0,
          957.0,
          957.0,
          957.0,
          958.0,
          958.0,
          957.0,
          957.0,
          958.0,
          958.0,
          958.0,
          959.0,
          959.0,
          959.0,
          958.0,
          958.0,
          957.0,
          957.0,
          957.0,
          957.0,
          958.0,
          958.0,
          957.0,
          957.0,
          958.0,
          958.0,
          958.0,
          959.0,
          959.0,
          959.0,
          960.0,
          960.0,
          960.0,
          960.0,
          959.0,
          958.0,
          958.0,
          958.0,
          958.0,
          958.0,
          958.0,
          958.0,
          957.0,
          957.0,
          958.0,
          958.0,
          958.0,
          958.0,
          959.0,
          958.0,
          959.0,
          959.0,
          959.0,
          958.0,
          956.0,
          957.0,
          957.0,
          957.0,
          958.0,
          959.0,
          959.0,
          959.0,
          958.0,
          957.0,
          957.0,
          957.0,
          958.0,
          958.0,
          958.0,
          957.0,
          958.0,
          957.0,
          958.0,
          958.0,
          958.0,
          958.0,
          957.0,
          957.0,
          957.0,
          958.0,
          957.0,
          957.0,
          958.0,
          959.0,
          959.0,
          958.0,
          959.0,
          959.0,
          959.0,
          959.0,
          959.0,
          958.0,
          957.0,
          957.0,
          956.0,
          956.0,
          956.0,
          957.0,
          957.0
        ],
        "WindowWidth": [
          2592.0,
          2599.0,
          2596.0,
          2591.0,
          2587.0,
          2587.0,
          2592.0,
          2593.0,
          2593.0,
          2594.0,
          2595.0,
          2596.0,
          2594.0,
          2598.0,
          2603.0,
          2605.0,
          2601.0,
          2597.0,
          2595.0,
          2599.0,
          2598.0,
          2596.0,
          2596.0,
          2598.0,
          2597.0,
          2599.0,
          2598.0,
          2593.0,
          2589.0,
          2592.0,
          2596.0,
          2598.0,
          2598.0,
          2597.0,
          2600.0,
          2601.0,
          2603.0,
          2601.0,
          2595.0,
          2592.0,
          2589.0,
          2589.0,
          2586.0,
          2586.0,
          2587.0,
          2587.0,
          2587.0,
          2588.0,
          2586.0,
          2588.0,
          2588.0,
          2583.0,
          2585.0,
          2588.0,
          2588.0,
          2591.0,
          2593.0,
          2591.0,
          2590.0,
          2590.0,
          2588.0,
          2586.0,
          2584.0,
          2585.0,
          2588.0,
          2589.0,
          2590.0,
          2593.0,
          2594.0,
          2592.0,
          2598.0,
          2600.0,
          2599.0,
          2600.0,
          2599.0,
          2603.0,
          2606.0,
          2610.0,
          2603.0,
          2592.0,
          2586.0,
          2585.0,
          2584.0,
          2584.0,
          2588.0,
          2588.0,
          2588.0,
          2586.0,
          2588.0,
          2591.0,
          2594.0,
