{
  "aor": 0.0016353048780487804,
  "aqi": 0.009208201280487806,
  "bids_meta": {
    "AcquisitionMatrixPE": 96,
    "AcquisitionNumber": 1,
    "AcquisitionTime": "10:36:22.475000",
    "BandwidthPerPixelPhaseEncode": 52.083,
    "BaseResolution": 96,
    "BodyPartExamined": "HEAD",
    "ConversionSoftware": "dcm2niix",
    "ConversionSoftwareVersion": "v1.0.20180622 GCC6.3.0",
    "DerivedVendorReportedEchoSpacing": 0.000600004,
    "DeviceSerialNumber": "18926",
    "DwellTime": 2.6e-06,
    "EchoTime": 0.025,
    "EffectiveEchoSpacing": 0.000200001,
    "FlipAngle": 50,
    "ImageOrientationPatientDICOM": [
      0.999992,
      0.000228905,
      0.00409774,
      1.99989e-10,
      0.998443,
      -0.0557745
    ],
    "ImageType": [
      "ORIGINAL",
      "PRIMARY",
      "M",
      "ND",
      "ECHO",
      "00",
      "MOSAIC"
    ],
    "InPlanePhaseEncodingDirectionDICOM": "ROW",
    "InstitutionName": "NIMH",
    "InstitutionalDepartmentName": "Department",
    "MRAcquisitionType": "2D",
    "MagneticFieldStrength": 6.98,
    "Manufacturer": "Siemens",
    "ManufacturersModelName": "Investigational_Device_7T",
    "Modality": "MR",
    "ParallelReductionFactorInPlane": 3,
    "PartialFourier": 1,
    "PatientPosition": "HFS",
    "PercentPhaseFOV": 100,
    "PhaseEncodingDirection": "i",
    "PhaseEncodingSteps": 94,
    "PhaseResolution": 1,
    "PixelBandwidth": 2003,
    "ProcedureStepDescription": "MRI_Procedure_Limited",
    "ProtocolName": "NIH_EPI_2.0iso_TR2_Run02",
    "PulseSequenceDetails": "%CustomerSeq%_inati_nih_epi",
    "ReceiveCoilName": "32Ch_Head_7T",
    "ReconMatrixPE": 96,
    "RepetitionTime": 2,
    "SAR": 0.0917494,
    "ScanningSequence": "EP",
    "SequenceName": "epfid2d1_96",
    "SequenceVariant": "SK",
    "SeriesDescription": "NIH_EPI_2.0iso_TR2_Run02",
    "SeriesNumber": 7,
    "ShimSetting": [
      -116,
      198,
      1010,
      2037,
      -170,
      849,
      901,
      -364
    ],
    "SliceThickness": 2,
    "SliceTiming": [
      1.005,
      0,
      1.0425,
      0.0375,
      1.08,
      0.075,
      1.1175,
      0.1125,
      1.1525,
      0.15,
      1.19,
      0.1875,
      1.2275,
      0.225,
      1.265,
      0.2625,
      1.3025,
      0.2975,
      1.34,
      0.335,
      1.3775,
      0.3725,
      1.415,
      0.41,
      1.45,
      0.4475,
      1.4875,
      0.485,
      1.525,
      0.5225,
      1.5625,
      0.56,
      1.6,
      0.595,
      1.6375,
      0.6325,
      1.675,
      0.67,
      1.7125,
      0.7075,
      1.7475,
      0.745,
      1.785,
      0.7825,
      1.8225,
      0.82,
      1.86,
      0.8575,
      1.8975,
      0.8925,
      1.935,
      0.93,
      1.9725,
      0.9675
    ],
    "SoftwareVersions": "syngo_MR_B17",
    "SpacingBetweenSlices": 2,
    "StationName": "FMRIFD7T",
    "TaskName": "FullFovAttentionTask",
    "TotalReadoutTime": 0.0190001,
    "TxRefAmp": 278,
    "dataset": "ds001555",
    "dcmmeta_affine": [
      [
        -1.9999831914901733,
        3.999781894581389e-10,
        0.008208253420889378,
        95.76705169677734
      ],
      [
        -0.00045781099470332265,
        1.9968867301940918,
        -0.11154810339212418,
        -67.94931030273438
      ],
      [
        0.008195475675165653,
        0.11154904216527939,
        1.9968699216842651,
        -37.49588394165039
      ],
      [
        0.0,
        0.0,
        0.0,
        1.0
      ]
    ],
    "dcmmeta_reorient_transform": [
      [
        0.0,
        -1.0,
        0.0,
        95.0
      ],
      [
        1.0,
        0.0,
        0.0,
        0.0
      ],
      [
        0.0,
        0.0,
        1.0,
        0.0
      ],
      [
        0.0,
        0.0,
        0.0,
        1.0
      ]
    ],
    "dcmmeta_shape": [
      96,
      96,
      54,
      164
    ],
    "dcmmeta_slice_dim": 2,
    "dcmmeta_version": 0.6,
    "global": {
      "const": {
        "AcquisitionMatrix": [
          0,
          96,
          96,
          0
        ],
        "Allergies": "No Known Allergies",
        "AngioFlag": "N",
        "BitsAllocated": 16,
        "BitsStored": 12,
        "BodyPartExamined": "HEAD",
        "Columns": 768,
        "EchoNumbers": 1,
        "EchoTime": 25.0,
        "EchoTrainLength": 1,
        "FlipAngle": 50.0,
        "HighBit": 11,
        "ImageOrientationPatient": [
          0.99999157803714,
          0.00022890549908,
          0.00409773804192,
          1.999891e-10,
          0.99844338980486,
          -0.0557745224541
        ],
        "ImagePositionPatient": [
          -767.76139276693,
          -792.86271567672,
          7.8280730866619
        ],
        "ImageType": [
          "ORIGINAL",
          "PRIMARY",
          "M",
          "ND",
          "ECHO_00",
          "MOSAIC"
        ],
        "ImagedNucleus": "1H",
        "ImagingFrequency": 297.204889,
        "InPlanePhaseEncodingDirection": "ROW",
        "LargestImagePixelValue": 4095,
        "MRAcquisitionType": "2D",
        "MagneticFieldStrength": 6.98,
        "Manufacturer": "SIEMENS",
        "ManufacturerModelName": "Investigational_Device_7T",
        "Modality": "MR",
        "NumberOfAverages": 1.0,
        "NumberOfPhaseEncodingSteps": 94,
        "PercentPhaseFieldOfView": 100.0,
        "PercentSampling": 100.0,
        "PerformedProcedureStepStartTime": "101021.055000",
        "PhotometricInterpretation": "MONOCHROME2",
        "PixelBandwidth": 2003.0,
        "PixelRepresentation": 0,
        "PixelSpacing": [
          2.0,
          2.0
        ],
        "PositionReferenceIndicator": "",
        "ProcedureCodeSequence": [
          {
            "CodeMeaning": "MRI Procedure Limited",
            "CodeValue": "MI01491",
            "CodingSchemeDesignator": "USA Standard",
            "ContextIdentifier": "4000114368"
          }
        ],
        "ProtocolName": "NIH_EPI_2.0iso_TR2_Run02",
        "ReferencedStudySequence": [
          {
            "ReferencedSOPClassUID": "1.2.840.10008.3.1.2.3.1",
            "ReferencedSOPInstanceUID": "1.2.840.113564.9.1.2723958737.61.2.5000080179"
          }
        ],
        "RepetitionTime": 2000.0,
        "RequestedProcedureCodeSequence": [
          {
            "CodeMeaning": "MRI Procedure Limited",
            "CodeValue": "MI01491",
            "CodingSchemeDesignator": "USA Standard",
            "ContextIdentifier": "4000114368"
          }
        ],
        "RequestingService": "MHMI",
        "Rows": 768,
        "SAR": 0.09174936144599,
        "SamplesPerPixel": 1,
        "ScanningSequence": "EP",
        "SequenceName": "epfid2d1_96",
        "SequenceVariant": "SK",
        "SeriesDescription": "NIH_EPI_2.0iso_TR2_Run02",
        "SeriesNumber": 7,
        "SliceLocation": -33.254354983146,
        "SliceThickness": 2.0,
        "SmallestImagePixelValue": 0,
        "SoftwareVersions": "syngo MR B17",
        "SpacingBetweenSlices": 2.0000000076982,
        "TransmitCoilName": "32Ch_Head_7T",
        "VariableFlipAngleFlag": "N",
        "WindowCenterWidthExplanation": "Algo1",
        "dBdt": 0.0
      },
      "slices": {}
    },
    "modality": "bold",
    "run_id": 4,
    "session_id": "04",
    "subject_id": "003",
    "task_id": "FullFovAttentionTask",
    "time": {
      "samples": {
        "AcquisitionNumber": [
          1,
          2,
          3,
          4,
          5,
          6,
          7,
          8,
          9,
          10,
          11,
          12,
          13,
          14,
          15,
          16,
          17,
          18,
          19,
          20,
          21,
          22,
          23,
          24,
          25,
          26,
          27,
          28,
          29,
          30,
          31,
          32,
          33,
          34,
          35,
          36,
          37,
          38,
          39,
          40,
          41,
          42,
          43,
          44,
          45,
          46,
          47,
          48,
          49,
          50,
          51,
          52,
          53,
          54,
          55,
          56,
          57,
          58,
          59,
          60,
          61,
          62,
          63,
          64,
          65,
          66,
          67,
          68,
          69,
          70,
          71,
          72,
          73,
          74,
          75,
          76,
          77,
          78,
          79,
          80,
          81,
          82,
          83,
          84,
          85,
          86,
          87,
          88,
          89,
          90,
          91,
          92,
          93,
          94,
          95,
          96,
          97,
          98,
          99,
          100,
          101,
          102,
          103,
          104,
          105,
          106,
          107,
          108,
          109,
          110,
          111,
          112,
          113,
          114,
          115,
          116,
          117,
          118,
          119,
          120,
          121,
          122,
          123,
          124,
          125,
          126,
          127,
          128,
          129,
          130,
          131,
          132,
          133,
          134,
          135,
          136,
          137,
          138,
          139,
          140,
          141,
          142,
          143,
          144,
          145,
          146,
          147,
          148,
          149,
          150,
          151,
          152,
          153,
          154,
          155,
          156,
          157,
          158,
          159,
          160,
          161,
          162,
          163,
          164
        ],
        "AcquisitionTime": [
          "103622.475000",
          "103626.490000",
          "103628.500000",
          "103630.507500",
          "103632.515000",
          "103634.522500",
          "103636.530000",
          "103638.540000",
          "103640.547500",
          "103642.555000",
          "103644.562500",
          "103646.572500",
          "103648.580000",
          "103650.587500",
          "103652.595000",
          "103654.602500",
          "103656.612500",
          "103658.620000",
          "103700.627500",
          "103702.635000",
          "103704.642500",
          "103706.652500",
          "103708.660000",
          "103710.667500",
          "103712.675000",
          "103714.685000",
          "103716.692500",
          "103718.700000",
          "103720.707500",
          "103722.715000",
          "103724.725000",
          "103726.732500",
          "103728.740000",
          "103730.747500",
          "103732.755000",
          "103734.765000",
          "103736.772500",
          "103738.780000",
          "103740.787500",
          "103742.797500",
          "103744.805000",
          "103746.812500",
          "103748.820000",
          "103750.827500",
          "103752.837500",
          "103754.845000",
          "103756.852500",
          "103758.860000",
          "103800.867500",
          "103802.877500",
          "103804.885000",
          "103806.892500",
          "103808.900000",
          "103810.907500",
          "103812.917500",
          "103814.925000",
          "103816.932500",
          "103818.940000",
          "103820.950000",
          "103822.957500",
          "103824.965000",
          "103826.972500",
          "103828.980000",
          "103830.990000",
          "103832.997500",
          "103835.005000",
          "103837.012500",
          "103839.020000",
          "103841.030000",
          "103843.037500",
          "103845.045000",
          "103847.052500",
          "103849.062500",
          "103851.070000",
          "103853.077500",
          "103855.085000",
          "103857.092500",
          "103859.102500",
          "103901.110000",
          "103903.117500",
          "103905.125000",
          "103907.132500",
          "103909.142500",
          "103911.150000",
          "103913.157500",
          "103915.165000",
          "103917.175000",
          "103919.182500",
          "103921.190000",
          "103923.197500",
          "103925.205000",
          "103927.215000",
          "103929.222500",
          "103931.230000",
          "103933.237500",
          "103935.245000",
          "103937.255000",
          "103939.262500",
          "103941.270000",
          "103943.277500",
          "103945.287500",
          "103947.295000",
          "103949.302500",
          "103951.310000",
          "103953.317500",
          "103955.327500",
          "103957.335000",
          "103959.342500",
          "104001.350000",
          "104003.357500",
          "104005.367500",
          "104007.375000",
          "104009.382500",
          "104011.390000",
          "104013.397500",
          "104015.407500",
          "104017.415000",
          "104019.422500",
          "104021.430000",
          "104023.440000",
          "104025.447500",
          "104027.455000",
          "104029.462500",
          "104031.470000",
          "104033.480000",
          "104035.487500",
          "104037.495000",
          "104039.502500",
          "104041.510000",
          "104043.520000",
          "104045.527500",
          "104047.535000",
          "104049.542500",
          "104051.552500",
          "104053.560000",
          "104055.567500",
          "104057.575000",
          "104059.582500",
          "104101.592500",
          "104103.600000",
          "104105.607500",
          "104107.615000",
          "104109.622500",
          "104111.632500",
          "104113.640000",
          "104115.647500",
          "104117.655000",
          "104119.665000",
          "104121.672500",
          "104123.680000",
          "104125.687500",
          "104127.695000",
          "104129.705000",
          "104131.712500",
          "104133.720000",
          "104135.727500",
          "104137.735000",
          "104139.745000",
          "104141.752500",
          "104143.760000",
          "104145.767500",
          "104147.775000",
          "104149.785000",
          "104151.792500"
        ],
        "ContentTime": [
          "103721.851000",
          "103721.883000",
          "103721.883000",
          "103721.883000",
          "103721.883000",
          "103721.883000",
          "103721.883000",
          "103721.898000",
          "103721.898000",
          "103721.898000",
          "103721.898000",
          "103721.898000",
          "103721.898000",
          "103721.898000",
          "103721.914000",
          "103721.914000",
          "103721.914000",
          "103721.914000",
          "103721.914000",
          "103721.914000",
          "103721.930000",
          "103721.930000",
          "103721.930000",
          "103721.930000",
          "103721.930000",
          "103721.930000",
          "103721.945000",
          "103721.945000",
          "103801.836000",
          "103801.836000",
          "103801.836000",
          "103801.851000",
          "103801.851000",
          "103801.851000",
          "103801.851000",
          "103801.867000",
          "103801.867000",
          "103801.867000",
          "103801.867000",
          "103801.867000",
          "103801.867000",
          "103801.867000",
          "103801.883000",
          "103801.883000",
          "103801.883000",
          "103801.883000",
          "103801.883000",
          "103801.883000",
          "103841.836000",
          "103841.836000",
          "103841.836000",
          "103841.836000",
          "103841.851000",
          "103841.851000",
          "103841.851000",
          "103841.851000",
          "103841.851000",
          "103841.851000",
          "103841.851000",
          "103841.867000",
          "103841.867000",
          "103841.867000",
          "103841.867000",
          "103841.867000",
          "103841.867000",
          "103841.883000",
          "103841.883000",
          "103841.883000",
          "103841.883000",
          "103941.836000",
          "103941.883000",
          "103941.883000",
          "103941.883000",
          "103941.883000",
          "103941.898000",
          "103941.898000",
          "103941.898000",
          "103941.898000",
          "103941.898000",
          "103941.898000",
          "103941.898000",
          "103941.914000",
          "103941.914000",
          "103941.914000",
          "103941.914000",
          "103941.914000",
          "103941.914000",
          "103941.914000",
          "103941.930000",
          "103941.930000",
          "103941.930000",
          "103941.930000",
          "103941.930000",
          "103941.945000",
          "103941.945000",
          "103941.945000",
          "103941.945000",
          "103941.945000",
          "104021.836000",
          "104021.836000",
          "104021.836000",
          "104021.851000",
          "104021.851000",
          "104021.851000",
          "104021.851000",
          "104021.851000",
          "104021.851000",
          "104021.851000",
          "104021.867000",
          "104021.867000",
          "104021.867000",
          "104021.867000",
          "104021.867000",
          "104021.867000",
          "104021.883000",
          "104021.883000",
          "104021.883000",
          "104021.883000",
          "104021.883000",
          "104101.836000",
          "104101.836000",
          "104101.836000",
          "104101.851000",
          "104101.851000",
          "104101.851000",
          "104101.851000",
          "104101.851000",
          "104101.867000",
          "104101.867000",
          "104101.867000",
          "104101.867000",
          "104101.867000",
          "104101.867000",
          "104101.867000",
          "104101.883000",
          "104101.883000",
          "104101.883000",
          "104101.883000",
          "104101.883000",
          "104141.836000",
          "104141.836000",
          "104141.851000",
          "104141.851000",
          "104141.851000",
          "104141.851000",
          "104141.851000",
          "104141.851000",
          "104141.867000",
          "104141.867000",
          "104141.867000",
          "104141.867000",
          "104141.867000",
          "104141.867000",
          "104141.867000",
          "104141.883000",
          "104141.883000",
          "104141.883000",
          "104141.883000",
          "104141.883000",
          "104151.695000",
          "104151.695000",
          "104151.695000",
          "104151.695000",
          "104151.711000"
        ],
        "InstanceCreationTime": [
          "103721.851000",
          "103721.883000",
          "103721.883000",
          "103721.883000",
          "103721.883000",
          "103721.883000",
          "103721.883000",
          "103721.898000",
          "103721.898000",
          "103721.898000",
          "103721.898000",
          "103721.898000",
          "103721.898000",
          "103721.898000",
          "103721.914000",
          "103721.914000",
          "103721.914000",
          "103721.914000",
          "103721.914000",
          "103721.914000",
          "103721.930000",
          "103721.930000",
          "103721.930000",
          "103721.930000",
          "103721.930000",
          "103721.930000",
          "103721.945000",
          "103721.945000",
          "103801.836000",
          "103801.836000",
          "103801.836000",
          "103801.851000",
          "103801.851000",
          "103801.851000",
          "103801.851000",
          "103801.867000",
          "103801.867000",
          "103801.867000",
          "103801.867000",
          "103801.867000",
          "103801.867000",
          "103801.867000",
          "103801.883000",
          "103801.883000",
          "103801.883000",
          "103801.883000",
          "103801.883000",
          "103801.883000",
          "103841.836000",
          "103841.836000",
          "103841.836000",
          "103841.836000",
          "103841.851000",
          "103841.851000",
          "103841.851000",
          "103841.851000",
          "103841.851000",
          "103841.851000",
          "103841.851000",
          "103841.867000",
          "103841.867000",
          "103841.867000",
          "103841.867000",
          "103841.867000",
          "103841.867000",
          "103841.883000",
          "103841.883000",
          "103841.883000",
          "103841.883000",
          "103941.836000",
          "103941.883000",
          "103941.883000",
          "103941.883000",
          "103941.883000",
          "103941.898000",
          "103941.898000",
          "103941.898000",
          "103941.898000",
          "103941.898000",
          "103941.898000",
          "103941.898000",
          "103941.914000",
          "103941.914000",
          "103941.914000",
          "103941.914000",
          "103941.914000",
          "103941.914000",
          "103941.914000",
          "103941.930000",
          "103941.930000",
          "103941.930000",
          "103941.930000",
          "103941.930000",
          "103941.945000",
          "103941.945000",
          "103941.945000",
          "103941.945000",
          "103941.945000",
          "104021.836000",
          "104021.836000",
          "104021.836000",
          "104021.851000",
          "104021.851000",
          "104021.851000",
          "104021.851000",
          "104021.851000",
          "104021.851000",
          "104021.851000",
          "104021.867000",
          "104021.867000",
          "104021.867000",
          "104021.867000",
          "104021.867000",
          "104021.867000",
          "104021.883000",
          "104021.883000",
          "104021.883000",
          "104021.883000",
          "104021.883000",
          "104101.836000",
          "104101.836000",
          "104101.836000",
          "104101.851000",
          "104101.851000",
          "104101.851000",
          "104101.851000",
          "104101.851000",
          "104101.867000",
          "104101.867000",
          "104101.867000",
          "104101.867000",
          "104101.867000",
          "104101.867000",
          "104101.867000",
          "104101.883000",
          "104101.883000",
          "104101.883000",
          "104101.883000",
          "104101.883000",
          "104141.836000",
          "104141.836000",
          "104141.851000",
          "104141.851000",
          "104141.851000",
          "104141.851000",
          "104141.851000",
          "104141.851000",
          "104141.867000",
          "104141.867000",
          "104141.867000",
          "104141.867000",
          "104141.867000",
          "104141.867000",
          "104141.867000",
          "104141.883000",
          "104141.883000",
          "104141.883000",
          "104141.883000",
          "104141.883000",
          "104151.695000",
          "104151.695000",
          "104151.695000",
          "104151.695000",
          "104151.711000"
        ],
        "InstanceNumber": [
          1,
          2,
          3,
          4,
          5,
          6,
          7,
          8,
          9,
          10,
          11,
          12,
          13,
          14,
          15,
          16,
          17,
          18,
          19,
          20,
          21,
          22,
          23,
          24,
          25,
          26,
          27,
          28,
          29,
          30,
          31,
          32,
          33,
          34,
          35,
          36,
          37,
          38,
          39,
          40,
          41,
          42,
          43,
          44,
          45,
          46,
          47,
          48,
          49,
          50,
          51,
          52,
          53,
          54,
          55,
          56,
          57,
          58,
          59,
          60,
          61,
          62,
          63,
          64,
          65,
          66,
          67,
          68,
          69,
          70,
          71,
          72,
          73,
          74,
          75,
          76,
          77,
          78,
          79,
          80,
          81,
          82,
          83,
          84,
          85,
          86,
          87,
          88,
          89,
          90,
          91,
          92,
          93,
          94,
          95,
          96,
          97,
          98,
          99,
          100,
          101,
          102,
          103,
          104,
          105,
          106,
          107,
          108,
          109,
          110,
          111,
          112,
          113,
          114,
          115,
          116,
          117,
          118,
          119,
          120,
          121,
          122,
          123,
          124,
          125,
          126,
          127,
          128,
          129,
          130,
          131,
          132,
          133,
          134,
          135,
          136,
          137,
          138,
          139,
          140,
          141,
          142,
          143,
          144,
          145,
          146,
          147,
          148,
          149,
          150,
          151,
          152,
          153,
          154,
          155,
          156,
          157,
          158,
          159,
          160,
          161,
          162,
          163,
          164
        ],
        "WindowCenter": [
          970.0,
          970.0,
          970.0,
          969.0,
          969.0,
          970.0,
          971.0,
          971.0,
          969.0,
          968.0,
          970.0,
          970.0,
          970.0,
          969.0,
          968.0,
          969.0,
          968.0,
          969.0,
          970.0,
          969.0,
          969.0,
          969.0,
          970.0,
          969.0,
          970.0,
          970.0,
          970.0,
          970.0,
          969.0,
          968.0,
          969.0,
          969.0,
          968.0,
          969.0,
          969.0,
          969.0,
          969.0,
          969.0,
          967.0,
          968.0,
          969.0,
          969.0,
          969.0,
          969.0,
          969.0,
          968.0,
          969.0,
          972.0,
          971.0,
          970.0,
          969.0,
          968.0,
          969.0,
          971.0,
          970.0,
          969.0,
          969.0,
          968.0,
          968.0,
          967.0,
          968.0,
          968.0,
          968.0,
          968.0,
          967.0,
          967.0,
          968.0,
          969.0,
          969.0,
          970.0,
          969.0,
          969.0,
          968.0,
          969.0,
          971.0,
          971.0,
          970.0,
          970.0,
          970.0,
          971.0,
          971.0,
          971.0,
          971.0,
          970.0,
          969.0,
          970.0,
          970.0,
          969.0,
          970.0,
          970.0,
          969.0,
          968.0,
          968.0,
          967.0,
          969.0,
          970.0,
          969.0,
          968.0,
          968.0,
          969.0,
          970.0,
          969.0,
          968.0,
          968.0,
          968.0,
          968.0,
          967.0,
          968.0,
          969.0,
          969.0,
          969.0,
          968.0,
          968.0,
          969.0,
          969.0,
          970.0,
          969.0,
          969.0,
          969.0,
          970.0,
          969.0,
          969.0,
          969.0,
          969.0,
          970.0,
          969.0,
          969.0,
          969.0,
          970.0,
          969.0,
          969.0,
          971.0,
          971.0,
          970.0,
          970.0,
          971.0,
          971.0,
          971.0,
          971.0,
          970.0,
          970.0,
          970.0,
          970.0,
          970.0,
          970.0,
          970.0,
          970.0,
          971.0,
          970.0,
          970.0,
          970.0,
          970.0,
          970.0,
          971.0,
          971.0,
          971.0,
          971.0,
          971.0,
          970.0,
          970.0,
          968.0,
          970.0,
          969.0,
          969.0
        ],
        "WindowWidth": [
          2640.0,
          2643.0,
          2640.0,
          2635.0,
          2636.0,
          2640.0,
          2643.0,
          2646.0,
          2640.0,
          2636.0,
          2643.0,
          2649.0,
          2648.0,
          2644.0,
          2636.0,
          2636.0,
          2640.0,
          2640.0,
          2638.0,
          2634.0,
          2635.0,
          2636.0,
          2632.0,
          2634.0,
          2636.0,
          2636.0,
          2634.0,
          2634.0,
          2638.0,
          2636.0,
          2633.0,
          2630.0,
          2630.0,
          2635.0,
          2638.0,
          2635.0,
          2636.0,
          2635.0,
          2633.0,
          2637.0,
          2640.0,
          2640.0,
          2641.0,
          2639.0,
          2634.0,
          2636.0,
          2644.0,
          2649.0,
          2649.0,
          2636.0,
          2627.0,
          2627.0,
          2632.0,
          2639.0,
          2634.0,
          2627.0,
          2627.0,
          2626.0,
          2625.0,
          2626.0,
          2625.0,
          2627.0,
          2634.0,
          2631.0,
          2625.0,
          2628.0,
          2634.0,
          2638.0,
          2644.0,
          2647.0,
          2643.0,
          2638.0,
          2638.0,
          2647.0,
          2655.0,
          2657.0,
          2651.0,
          2645.0,
          2644.0,
          2645.0,
          2646.0,
          2643.0,
          2640.0,
          2641.0,
          2640.0,
          2640.0,
          2639.0,
          2637.0,
          2639.0,
          2646.0,
          2642.0,
