{
  "aor": 0.0017320121951219514,
  "aqi": 0.006658610243902439,
  "bids_meta": {
    "AcquisitionMatrixPE": 96,
    "AcquisitionNumber": 1,
    "AcquisitionTime": "18:53:31.720000",
    "BandwidthPerPixelPhaseEncode": 52.083,
    "BaseResolution": 96,
    "BodyPartExamined": "HEAD",
    "ConversionSoftware": "dcm2niix",
    "ConversionSoftwareVersion": "v1.0.20180622 GCC6.3.0",
    "DerivedVendorReportedEchoSpacing": 0.000600004,
    "DeviceSerialNumber": "18926",
    "DwellTime": 2.6e-06,
    "EchoTime": 0.025,
    "EffectiveEchoSpacing": 0.000200001,
    "FlipAngle": 50,
    "ImageOrientationPatientDICOM": [
      0.999992,
      0.000943965,
      0.00399409,
      2.36227e-10,
      0.97319,
      -0.230004
    ],
    "ImageType": [
      "ORIGINAL",
      "PRIMARY",
      "M",
      "ND",
      "ECHO",
      "00",
      "MOSAIC"
    ],
    "InPlanePhaseEncodingDirectionDICOM": "ROW",
    "InstitutionName": "NIMH",
    "InstitutionalDepartmentName": "Department",
    "MRAcquisitionType": "2D",
    "MagneticFieldStrength": 6.98,
    "Manufacturer": "Siemens",
    "ManufacturersModelName": "Investigational_Device_7T",
    "Modality": "MR",
    "ParallelReductionFactorInPlane": 3,
    "PartialFourier": 1,
    "PatientPosition": "HFS",
    "PercentPhaseFOV": 100,
    "PhaseEncodingDirection": "i",
    "PhaseEncodingSteps": 94,
    "PhaseResolution": 1,
    "PixelBandwidth": 2003,
    "ProcedureStepDescription": "MRI_Procedure_Limited",
    "ProtocolName": "NIH_EPI_2.0iso_TR2_Run03",
    "PulseSequenceDetails": "%CustomerSeq%_inati_nih_epi",
    "ReceiveCoilName": "32Ch_Head_7T",
    "ReconMatrixPE": 96,
    "RepetitionTime": 2,
    "SAR": 0.067038,
    "ScanningSequence": "EP",
    "SequenceName": "epfid2d1_96",
    "SequenceVariant": "SK",
    "SeriesDescription": "NIH_EPI_2.0iso_TR2_Run03",
    "SeriesNumber": 7,
    "ShimSetting": [
      -52,
      238,
      714,
      825,
      -113,
      538,
      -356,
      -420
    ],
    "SliceThickness": 2,
    "SliceTiming": [
      1.005,
      0,
      1.04,
      0.0375,
      1.0775,
      0.075,
      1.115,
      0.1125,
      1.1525,
      0.15,
      1.19,
      0.185,
      1.2275,
      0.2225,
      1.265,
      0.26,
      1.3025,
      0.2975,
      1.3375,
      0.335,
      1.375,
      0.3725,
      1.4125,
      0.41,
      1.45,
      0.4475,
      1.4875,
      0.4825,
      1.525,
      0.52,
      1.5625,
      0.5575,
      1.6,
      0.595,
      1.635,
      0.6325,
      1.6725,
      0.67,
      1.71,
      0.7075,
      1.7475,
      0.7425,
      1.785,
      0.78,
      1.8225,
      0.8175,
      1.86,
      0.855,
      1.895,
      0.8925,
      1.9325,
      0.93,
      1.97,
      0.9675
    ],
    "SoftwareVersions": "syngo_MR_B17",
    "SpacingBetweenSlices": 2,
    "StationName": "FMRIFD7T",
    "TaskName": "HalfFovNoTask",
    "TotalReadoutTime": 0.0190001,
    "TxRefAmp": 299,
    "dataset": "ds001555",
    "dcmmeta_affine": [
      [
        -1.9999831914901733,
        4.724547975065718e-10,
        0.008208253420889378,
        95.76705169677734
      ],
      [
        -0.0018879302078858018,
        1.9463794231414795,
        -0.4600040018558502,
        -54.247005462646484
      ],
      [
        0.007988188415765762,
        0.4600078761577606,
        1.9463629722595215,
        -61.97052001953125
      ],
      [
        0.0,
        0.0,
        0.0,
        1.0
      ]
    ],
    "dcmmeta_reorient_transform": [
      [
        0.0,
        -1.0,
        0.0,
        95.0
      ],
      [
        1.0,
        0.0,
        0.0,
        0.0
      ],
      [
        0.0,
        0.0,
        1.0,
        0.0
      ],
      [
        0.0,
        0.0,
        0.0,
        1.0
      ]
    ],
    "dcmmeta_shape": [
      96,
      96,
      54,
      164
    ],
    "dcmmeta_slice_dim": 2,
    "dcmmeta_version": 0.6,
    "global": {
      "const": {
        "AcquisitionMatrix": [
          0,
          96,
          96,
          0
        ],
        "Allergies": "No Known Allergies",
        "AngioFlag": "N",
        "BitsAllocated": 16,
        "BitsStored": 12,
        "BodyPartExamined": "HEAD",
        "Columns": 768,
        "EchoNumbers": 1,
        "EchoTime": 25.0,
        "EchoTrainLength": 1,
        "FlipAngle": 50.0,
        "HighBit": 11,
        "ImageOrientationPatient": [
          0.99999157803603,
          0.0009439651321,
          0.00399409399407,
          2.362274e-10,
          0.97318969638339,
          -0.2300039452992
        ],
        "ImagePositionPatient": [
          -767.76139279391,
          -785.27685632857,
          133.60884903601
        ],
        "ImageType": [
          "ORIGINAL",
          "PRIMARY",
          "M",
          "ND",
          "ECHO_00",
          "MOSAIC"
        ],
        "ImagedNucleus": "1H",
        "ImagingFrequency": 297.204936,
        "InPlanePhaseEncodingDirection": "ROW",
        "LargestImagePixelValue": 4095,
        "MRAcquisitionType": "2D",
        "MagneticFieldStrength": 6.98,
        "Manufacturer": "SIEMENS",
        "ManufacturerModelName": "Investigational_Device_7T",
        "Modality": "MR",
        "NumberOfAverages": 1.0,
        "NumberOfPhaseEncodingSteps": 94,
        "PercentPhaseFieldOfView": 100.0,
        "PercentSampling": 100.0,
        "PerformedProcedureStepStartTime": "180825.140000",
        "PhotometricInterpretation": "MONOCHROME2",
        "PixelBandwidth": 2003.0,
        "PixelRepresentation": 0,
        "PixelSpacing": [
          2.0,
          2.0
        ],
        "PositionReferenceIndicator": "",
        "ProcedureCodeSequence": [
          {
            "CodeMeaning": "MRI Procedure Limited",
            "CodeValue": "MI01491",
            "CodingSchemeDesignator": "USA Standard",
            "ContextIdentifier": "4000103350"
          }
        ],
        "ProtocolName": "NIH_EPI_2.0iso_TR2_Run03",
        "ReferencedStudySequence": [
          {
            "ReferencedSOPClassUID": "1.2.840.10008.3.1.2.3.1",
            "ReferencedSOPInstanceUID": "1.2.840.113564.9.1.2723958737.61.2.5000069100"
          }
        ],
        "RepetitionTime": 2000.0,
        "RequestedProcedureCodeSequence": [
          {
            "CodeMeaning": "MRI Procedure Limited",
            "CodeValue": "MI01491",
            "CodingSchemeDesignator": "USA Standard",
            "ContextIdentifier": "4000103350"
          }
        ],
        "RequestingService": "MHMI",
        "Rows": 768,
        "SAR": 0.0670380477419,
        "SamplesPerPixel": 1,
        "ScanningSequence": "EP",
        "SequenceName": "epfid2d1_96",
        "SequenceVariant": "SK",
        "SeriesDescription": "NIH_EPI_2.0iso_TR2_Run03",
        "SeriesNumber": 7,
        "SliceLocation": -47.438603685558,
        "SliceThickness": 2.0,
        "SmallestImagePixelValue": 0,
        "SoftwareVersions": "syngo MR B17",
        "SpacingBetweenSlices": 1.9999999851018,
        "TransmitCoilName": "32Ch_Head_7T",
        "VariableFlipAngleFlag": "N",
        "WindowCenterWidthExplanation": "Algo1",
        "dBdt": 0.0
      },
      "slices": {}
    },
    "modality": "bold",
    "run_id": 4,
    "session_id": "06",
    "subject_id": "001",
    "task_id": "HalfFovNoTask",
    "time": {
      "samples": {
        "AcquisitionNumber": [
          1,
          2,
          3,
          4,
          5,
          6,
          7,
          8,
          9,
          10,
          11,
          12,
          13,
          14,
          15,
          16,
          17,
          18,
          19,
          20,
          21,
          22,
          23,
          24,
          25,
          26,
          27,
          28,
          29,
          30,
          31,
          32,
          33,
          34,
          35,
          36,
          37,
          38,
          39,
          40,
          41,
          42,
          43,
          44,
          45,
          46,
          47,
          48,
          49,
          50,
          51,
          52,
          53,
          54,
          55,
          56,
          57,
          58,
          59,
          60,
          61,
          62,
          63,
          64,
          65,
          66,
          67,
          68,
          69,
          70,
          71,
          72,
          73,
          74,
          75,
          76,
          77,
          78,
          79,
          80,
          81,
          82,
          83,
          84,
          85,
          86,
          87,
          88,
          89,
          90,
          91,
          92,
          93,
          94,
          95,
          96,
          97,
          98,
          99,
          100,
          101,
          102,
          103,
          104,
          105,
          106,
          107,
          108,
          109,
          110,
          111,
          112,
          113,
          114,
          115,
          116,
          117,
          118,
          119,
          120,
          121,
          122,
          123,
          124,
          125,
          126,
          127,
          128,
          129,
          130,
          131,
          132,
          133,
          134,
          135,
          136,
          137,
          138,
          139,
          140,
          141,
          142,
          143,
          144,
          145,
          146,
          147,
          148,
          149,
          150,
          151,
          152,
          153,
          154,
          155,
          156,
          157,
          158,
          159,
          160,
          161,
          162,
          163,
          164
        ],
        "AcquisitionTime": [
          "185331.720000",
          "185335.735000",
          "185337.742500",
          "185339.750000",
          "185341.760000",
          "185343.767500",
          "185345.775000",
          "185347.782500",
          "185349.790000",
          "185351.800000",
          "185353.807500",
          "185355.815000",
          "185357.822500",
          "185359.832500",
          "185401.840000",
          "185403.847500",
          "185405.855000",
          "185407.862500",
          "185409.872500",
          "185411.880000",
          "185413.887500",
          "185415.895000",
          "185417.902500",
          "185419.912500",
          "185421.920000",
          "185423.927500",
          "185425.935000",
          "185427.945000",
          "185429.952500",
          "185431.960000",
          "185433.967500",
          "185435.975000",
          "185437.985000",
          "185439.992500",
          "185442.000000",
          "185444.007500",
          "185446.015000",
          "185448.025000",
          "185450.032500",
          "185452.040000",
          "185454.047500",
          "185456.057500",
          "185458.065000",
          "185500.072500",
          "185502.080000",
          "185504.087500",
          "185506.097500",
          "185508.105000",
          "185510.112500",
          "185512.120000",
          "185514.127500",
          "185516.137500",
          "185518.145000",
          "185520.152500",
          "185522.160000",
          "185524.170000",
          "185526.177500",
          "185528.185000",
          "185530.192500",
          "185532.200000",
          "185534.210000",
          "185536.217500",
          "185538.225000",
          "185540.232500",
          "185542.240000",
          "185544.250000",
          "185546.257500",
          "185548.265000",
          "185550.272500",
          "185552.280000",
          "185554.290000",
          "185556.297500",
          "185558.305000",
          "185600.312500",
          "185602.322500",
          "185604.330000",
          "185606.337500",
          "185608.345000",
          "185610.352500",
          "185612.362500",
          "185614.370000",
          "185616.377500",
          "185618.385000",
          "185620.392500",
          "185622.402500",
          "185624.410000",
          "185626.417500",
          "185628.425000",
          "185630.435000",
          "185632.442500",
          "185634.450000",
          "185636.457500",
          "185638.465000",
          "185640.475000",
          "185642.482500",
          "185644.490000",
          "185646.497500",
          "185648.505000",
          "185650.515000",
          "185652.522500",
          "185654.530000",
          "185656.537500",
          "185658.547500",
          "185700.555000",
          "185702.562500",
          "185704.570000",
          "185706.577500",
          "185708.587500",
          "185710.595000",
          "185712.602500",
          "185714.610000",
          "185716.617500",
          "185718.627500",
          "185720.635000",
          "185722.642500",
          "185724.650000",
          "185726.657500",
          "185728.667500",
          "185730.675000",
          "185732.682500",
          "185734.690000",
          "185736.700000",
          "185738.707500",
          "185740.715000",
          "185742.722500",
          "185744.730000",
          "185746.740000",
          "185748.747500",
          "185750.755000",
          "185752.762500",
          "185754.770000",
          "185756.780000",
          "185758.787500",
          "185800.795000",
          "185802.802500",
          "185804.812500",
          "185806.820000",
          "185808.827500",
          "185810.835000",
          "185812.842500",
          "185814.852500",
          "185816.860000",
          "185818.867500",
          "185820.875000",
          "185822.882500",
          "185824.892500",
          "185826.900000",
          "185828.907500",
          "185830.915000",
          "185832.925000",
          "185834.932500",
          "185836.940000",
          "185838.947500",
          "185840.955000",
          "185842.965000",
          "185844.972500",
          "185846.980000",
          "185848.987500",
          "185850.995000",
          "185853.005000",
          "185855.012500",
          "185857.020000",
          "185859.027500",
          "185901.035000"
        ],
        "ContentTime": [
          "185431.812000",
          "185431.812000",
          "185431.812000",
          "185431.812000",
          "185431.828000",
          "185431.828000",
          "185431.828000",
          "185431.828000",
          "185431.828000",
          "185431.828000",
          "185431.828000",
          "185431.843000",
          "185431.843000",
          "185431.843000",
          "185431.843000",
          "185431.843000",
          "185431.843000",
          "185431.859000",
          "185431.859000",
          "185431.859000",
          "185431.859000",
          "185431.859000",
          "185431.859000",
          "185431.859000",
          "185431.875000",
          "185431.875000",
          "185431.875000",
          "185431.875000",
          "185431.875000",
          "185511.796000",
          "185511.796000",
          "185511.812000",
          "185511.812000",
          "185511.812000",
          "185511.812000",
          "185511.812000",
          "185511.812000",
          "185511.828000",
          "185511.828000",
          "185511.828000",
          "185511.828000",
          "185511.828000",
          "185511.828000",
          "185511.828000",
          "185511.843000",
          "185511.843000",
          "185511.843000",
          "185511.843000",
          "185511.843000",
          "185551.796000",
          "185551.812000",
          "185551.812000",
          "185551.812000",
          "185551.812000",
          "185551.828000",
          "185551.828000",
          "185551.828000",
          "185551.828000",
          "185551.843000",
          "185551.843000",
          "185551.843000",
          "185551.843000",
          "185551.843000",
          "185551.843000",
          "185551.859000",
          "185551.859000",
          "185551.859000",
          "185551.859000",
          "185551.859000",
          "185631.796000",
          "185631.796000",
          "185631.812000",
          "185631.812000",
          "185631.812000",
          "185631.812000",
          "185631.812000",
          "185631.812000",
          "185631.812000",
          "185631.828000",
          "185631.828000",
          "185631.828000",
          "185631.828000",
          "185631.828000",
          "185631.828000",
          "185631.843000",
          "185631.843000",
          "185631.843000",
          "185631.843000",
          "185631.843000",
          "185711.796000",
          "185711.796000",
          "185711.812000",
          "185711.812000",
          "185711.812000",
          "185711.812000",
          "185711.828000",
          "185711.828000",
          "185711.828000",
          "185711.828000",
          "185711.828000",
          "185711.828000",
          "185711.828000",
          "185711.843000",
          "185711.843000",
          "185711.843000",
          "185711.843000",
          "185711.843000",
          "185711.859000",
          "185711.859000",
          "185751.796000",
          "185751.796000",
          "185751.812000",
          "185751.812000",
          "185751.812000",
          "185751.812000",
          "185751.812000",
          "185751.812000",
          "185751.828000",
          "185751.828000",
          "185751.828000",
          "185751.843000",
          "185751.843000",
          "185751.843000",
          "185751.843000",
          "185751.843000",
          "185751.843000",
          "185751.843000",
          "185751.859000",
          "185751.859000",
          "185831.796000",
          "185831.796000",
          "185831.812000",
          "185831.812000",
          "185831.812000",
          "185831.812000",
          "185831.812000",
          "185831.812000",
          "185831.812000",
          "185831.828000",
          "185831.828000",
          "185831.828000",
          "185831.828000",
          "185831.828000",
          "185831.828000",
          "185831.843000",
          "185831.843000",
          "185831.843000",
          "185831.843000",
          "185831.843000",
          "185901.390000",
          "185901.390000",
          "185901.406000",
          "185901.421000",
          "185901.421000",
          "185901.421000",
          "185901.421000",
          "185901.437000",
          "185901.437000",
          "185901.437000",
          "185901.437000",
          "185901.437000",
          "185901.437000",
          "185901.437000",
          "185901.453000"
        ],
        "InstanceCreationTime": [
          "185431.812000",
          "185431.812000",
          "185431.812000",
          "185431.812000",
          "185431.828000",
          "185431.828000",
          "185431.828000",
          "185431.828000",
          "185431.828000",
          "185431.828000",
          "185431.828000",
          "185431.843000",
          "185431.843000",
          "185431.843000",
          "185431.843000",
          "185431.843000",
          "185431.843000",
          "185431.859000",
          "185431.859000",
          "185431.859000",
          "185431.859000",
          "185431.859000",
          "185431.859000",
          "185431.859000",
          "185431.875000",
          "185431.875000",
          "185431.875000",
          "185431.875000",
          "185431.875000",
          "185511.796000",
          "185511.796000",
          "185511.812000",
          "185511.812000",
          "185511.812000",
          "185511.812000",
          "185511.812000",
          "185511.812000",
          "185511.828000",
          "185511.828000",
          "185511.828000",
          "185511.828000",
          "185511.828000",
          "185511.828000",
          "185511.828000",
          "185511.843000",
          "185511.843000",
          "185511.843000",
          "185511.843000",
          "185511.843000",
          "185551.796000",
          "185551.812000",
          "185551.812000",
          "185551.812000",
          "185551.812000",
          "185551.828000",
          "185551.828000",
          "185551.828000",
          "185551.828000",
          "185551.843000",
          "185551.843000",
          "185551.843000",
          "185551.843000",
          "185551.843000",
          "185551.843000",
          "185551.859000",
          "185551.859000",
          "185551.859000",
          "185551.859000",
          "185551.859000",
          "185631.796000",
          "185631.796000",
          "185631.812000",
          "185631.812000",
          "185631.812000",
          "185631.812000",
          "185631.812000",
          "185631.812000",
          "185631.812000",
          "185631.828000",
          "185631.828000",
          "185631.828000",
          "185631.828000",
          "185631.828000",
          "185631.828000",
          "185631.843000",
          "185631.843000",
          "185631.843000",
          "185631.843000",
          "185631.843000",
          "185711.796000",
          "185711.796000",
          "185711.812000",
          "185711.812000",
          "185711.812000",
          "185711.812000",
          "185711.828000",
          "185711.828000",
          "185711.828000",
          "185711.828000",
          "185711.828000",
          "185711.828000",
          "185711.828000",
          "185711.843000",
          "185711.843000",
          "185711.843000",
          "185711.843000",
          "185711.843000",
          "185711.859000",
          "185711.859000",
          "185751.796000",
          "185751.796000",
          "185751.812000",
          "185751.812000",
          "185751.812000",
          "185751.812000",
          "185751.812000",
          "185751.812000",
          "185751.828000",
          "185751.828000",
          "185751.828000",
          "185751.843000",
          "185751.843000",
          "185751.843000",
          "185751.843000",
          "185751.843000",
          "185751.843000",
          "185751.843000",
          "185751.859000",
          "185751.859000",
          "185831.796000",
          "185831.796000",
          "185831.812000",
          "185831.812000",
          "185831.812000",
          "185831.812000",
          "185831.812000",
          "185831.812000",
          "185831.812000",
          "185831.828000",
          "185831.828000",
          "185831.828000",
          "185831.828000",
          "185831.828000",
          "185831.828000",
          "185831.843000",
          "185831.843000",
          "185831.843000",
          "185831.843000",
          "185831.843000",
          "185901.390000",
          "185901.390000",
          "185901.406000",
          "185901.421000",
          "185901.421000",
          "185901.421000",
          "185901.421000",
          "185901.437000",
          "185901.437000",
          "185901.437000",
          "185901.437000",
          "185901.437000",
          "185901.437000",
          "185901.437000",
          "185901.453000"
        ],
        "InstanceNumber": [
          1,
          2,
          3,
          4,
          5,
          6,
          7,
          8,
          9,
          10,
          11,
          12,
          13,
          14,
          15,
          16,
          17,
          18,
          19,
          20,
          21,
          22,
          23,
          24,
          25,
          26,
          27,
          28,
          29,
          30,
          31,
          32,
          33,
          34,
          35,
          36,
          37,
          38,
          39,
          40,
          41,
          42,
          43,
          44,
          45,
          46,
          47,
          48,
          49,
          50,
          51,
          52,
          53,
          54,
          55,
          56,
          57,
          58,
          59,
          60,
          61,
          62,
          63,
          64,
          65,
          66,
          67,
          68,
          69,
          70,
          71,
          72,
          73,
          74,
          75,
          76,
          77,
          78,
          79,
          80,
          81,
          82,
          83,
          84,
          85,
          86,
          87,
          88,
          89,
          90,
          91,
          92,
          93,
          94,
          95,
          96,
          97,
          98,
          99,
          100,
          101,
          102,
          103,
          104,
          105,
          106,
          107,
          108,
          109,
          110,
          111,
          112,
          113,
          114,
          115,
          116,
          117,
          118,
          119,
          120,
          121,
          122,
          123,
          124,
          125,
          126,
          127,
          128,
          129,
          130,
          131,
          132,
          133,
          134,
          135,
          136,
          137,
          138,
          139,
          140,
          141,
          142,
          143,
          144,
          145,
          146,
          147,
          148,
          149,
          150,
          151,
          152,
          153,
          154,
          155,
          156,
          157,
          158,
          159,
          160,
          161,
          162,
          163,
          164
        ],
        "WindowCenter": [
          1138.0,
          1137.0,
          1139.0,
          1139.0,
          1137.0,
          1137.0,
          1137.0,
          1137.0,
          1137.0,
          1136.0,
          1137.0,
          1138.0,
          1137.0,
          1137.0,
          1136.0,
          1137.0,
          1137.0,
          1137.0,
          1137.0,
          1137.0,
          1136.0,
          1137.0,
          1137.0,
          1136.0,
          1135.0,
          1134.0,
          1134.0,
          1134.0,
          1134.0,
          1133.0,
          1135.0,
          1136.0,
          1137.0,
          1137.0,
          1137.0,
          1141.0,
          1141.0,
          1139.0,
          1137.0,
          1137.0,
          1138.0,
          1137.0,
          1136.0,
          1133.0,
          1132.0,
          1132.0,
          1131.0,
          1131.0,
          1132.0,
          1132.0,
          1133.0,
          1134.0,
          1134.0,
          1133.0,
          1133.0,
          1134.0,
          1135.0,
          1136.0,
          1137.0,
          1137.0,
          1135.0,
          1136.0,
          1136.0,
          1134.0,
          1133.0,
          1133.0,
          1134.0,
          1133.0,
          1133.0,
          1134.0,
          1133.0,
          1133.0,
          1134.0,
          1134.0,
          1135.0,
          1134.0,
          1134.0,
          1134.0,
          1137.0,
          1138.0,
          1135.0,
          1140.0,
          1139.0,
          1137.0,
          1135.0,
          1134.0,
          1135.0,
          1136.0,
          1134.0,
          1134.0,
          1132.0,
          1133.0,
          1133.0,
          1132.0,
          1132.0,
          1133.0,
          1135.0,
          1136.0,
          1138.0,
          1137.0,
          1138.0,
          1139.0,
          1139.0,
          1136.0,
          1136.0,
          1136.0,
          1136.0,
          1136.0,
          1137.0,
          1135.0,
          1135.0,
          1135.0,
          1134.0,
          1135.0,
          1137.0,
          1136.0,
          1136.0,
          1137.0,
          1137.0,
          1138.0,
          1136.0,
          1134.0,
          1134.0,
          1134.0,
          1134.0,
          1133.0,
          1132.0,
          1132.0,
          1132.0,
          1132.0,
          1132.0,
          1134.0,
          1133.0,
          1133.0,
          1134.0,
          1134.0,
          1134.0,
          1134.0,
          1134.0,
          1135.0,
          1136.0,
          1137.0,
          1136.0,
          1137.0,
          1137.0,
          1137.0,
          1138.0,
          1138.0,
          1137.0,
          1137.0,
          1135.0,
          1135.0,
          1135.0,
          1134.0,
          1135.0,
          1137.0,
          1137.0,
          1137.0,
          1137.0,
          1137.0,
          1139.0,
          1140.0,
          1139.0,
          1139.0
        ],
        "WindowWidth": [
          2720.0,
          2719.0,
          2723.0,
          2721.0,
          2716.0,
          2716.0,
          2718.0,
          2718.0,
          2716.0,
          2715.0,
          2719.0,
          2721.0,
          2718.0,
          2718.0,
          2718.0,
          2719.0,
          2721.0,
          2717.0,
          2715.0,
          2716.0,
          2716.0,
          2720.0,
          2718.0,
          2713.0,
          2712.0,
          2712.0,
          2710.0,
          2710.0,
          2708.0,
          2708.0,
          2712.0,
          2714.0,
          2716.0,
          2720.0,
          2721.0,
          2733.0,
          2729.0,
          2722.0,
          2720.0,
          2720.0,
          2721.0,
          2715.0,
          2712.0,
          2706.0,
          2702.0,
          2702.0,
          2700.0,
          2700.0,
          2701.0,
          2704.0,
          2709.0,
          2710.0,
          2706.0,
          2706.0,
          2706.0,
          2710.0,
          2712.0,
          2716.0,
          2720.0,
          2717.0,
          2715.0,
          2715.0,
          2713.0,
          2709.0,
          2706.0,
          2707.0,
          2708.0,
          2706.0,
          2705.0,
          2706.0,
          2703.0,
          2705.0,
          2708.0,
          2708.0,
          2709.0,
          2709.0,
          2708.0,
          2711.0,
          2718.0,
          2720.0,
          2715.0,
          2730.0,
          2727.0,
