{
  "aor": 0.002836341463414634,
  "aqi": 0.008004998292682928,
  "bids_meta": {
    "AcquisitionMatrixPE": 96,
    "AcquisitionNumber": 1,
    "AcquisitionTime": "19:00:7.922500",
    "BandwidthPerPixelPhaseEncode": 52.083,
    "BaseResolution": 96,
    "BodyPartExamined": "HEAD",
    "ConversionSoftware": "dcm2niix",
    "ConversionSoftwareVersion": "v1.0.20180622 GCC6.3.0",
    "DerivedVendorReportedEchoSpacing": 0.000600004,
    "DeviceSerialNumber": "18926",
    "DwellTime": 2.6e-06,
    "EchoTime": 0.025,
    "EffectiveEchoSpacing": 0.000200001,
    "FlipAngle": 50,
    "ImageOrientationPatientDICOM": [
      0.999992,
      0.000943965,
      0.00399409,
      2.36227e-10,
      0.97319,
      -0.230004
    ],
    "ImageType": [
      "ORIGINAL",
      "PRIMARY",
      "M",
      "ND",
      "ECHO",
      "00",
      "MOSAIC"
    ],
    "InPlanePhaseEncodingDirectionDICOM": "ROW",
    "InstitutionName": "NIMH",
    "InstitutionalDepartmentName": "Department",
    "MRAcquisitionType": "2D",
    "MagneticFieldStrength": 6.98,
    "Manufacturer": "Siemens",
    "ManufacturersModelName": "Investigational_Device_7T",
    "Modality": "MR",
    "ParallelReductionFactorInPlane": 3,
    "PartialFourier": 1,
    "PatientPosition": "HFS",
    "PercentPhaseFOV": 100,
    "PhaseEncodingDirection": "i",
    "PhaseEncodingSteps": 94,
    "PhaseResolution": 1,
    "PixelBandwidth": 2003,
    "ProcedureStepDescription": "MRI_Procedure_Limited",
    "ProtocolName": "NIH_EPI_2.0iso_TR2_Run04",
    "PulseSequenceDetails": "%CustomerSeq%_inati_nih_epi",
    "ReceiveCoilName": "32Ch_Head_7T",
    "ReconMatrixPE": 96,
    "RepetitionTime": 2,
    "SAR": 0.067038,
    "ScanningSequence": "EP",
    "SequenceName": "epfid2d1_96",
    "SequenceVariant": "SK",
    "SeriesDescription": "NIH_EPI_2.0iso_TR2_Run04",
    "SeriesNumber": 8,
    "ShimSetting": [
      -52,
      238,
      714,
      825,
      -113,
      538,
      -356,
      -420
    ],
    "SliceThickness": 2,
    "SliceTiming": [
      1.0025,
      0,
      1.04,
      0.035,
      1.0775,
      0.0725,
      1.115,
      0.11,
      1.1525,
      0.1475,
      1.1875,
      0.185,
      1.225,
      0.2225,
      1.2625,
      0.26,
      1.3,
      0.295,
      1.3375,
      0.3325,
      1.375,
      0.37,
      1.4125,
      0.4075,
      1.45,
      0.445,
      1.485,
      0.4825,
      1.5225,
      0.52,
      1.56,
      0.5575,
      1.5975,
      0.5925,
      1.635,
      0.63,
      1.6725,
      0.6675,
      1.71,
      0.705,
      1.745,
      0.7425,
      1.7825,
      0.78,
      1.82,
      0.8175,
      1.8575,
      0.855,
      1.895,
      0.89,
      1.9325,
      0.9275,
      1.97,
      0.965
    ],
    "SoftwareVersions": "syngo_MR_B17",
    "SpacingBetweenSlices": 2,
    "StationName": "FMRIFD7T",
    "TaskName": "HalfFovNoTask",
    "TotalReadoutTime": 0.0190001,
    "TxRefAmp": 299,
    "dataset": "ds001555",
    "dcmmeta_affine": [
      [
        -1.9999831914901733,
        4.724547975065718e-10,
        0.008208253420889378,
        95.76705169677734
      ],
      [
        -0.0018879302078858018,
        1.9463794231414795,
        -0.4600040018558502,
        -54.247005462646484
      ],
      [
        0.007988188415765762,
        0.4600078761577606,
        1.9463629722595215,
        -61.97052001953125
      ],
      [
        0.0,
        0.0,
        0.0,
        1.0
      ]
    ],
    "dcmmeta_reorient_transform": [
      [
        0.0,
        -1.0,
        0.0,
        95.0
      ],
      [
        1.0,
        0.0,
        0.0,
        0.0
      ],
      [
        0.0,
        0.0,
        1.0,
        0.0
      ],
      [
        0.0,
        0.0,
        0.0,
        1.0
      ]
    ],
    "dcmmeta_shape": [
      96,
      96,
      54,
      164
    ],
    "dcmmeta_slice_dim": 2,
    "dcmmeta_version": 0.6,
    "global": {
      "const": {
        "AcquisitionMatrix": [
          0,
          96,
          96,
          0
        ],
        "Allergies": "No Known Allergies",
        "AngioFlag": "N",
        "BitsAllocated": 16,
        "BitsStored": 12,
        "BodyPartExamined": "HEAD",
        "Columns": 768,
        "EchoNumbers": 1,
        "EchoTime": 25.0,
        "EchoTrainLength": 1,
        "FlipAngle": 50.0,
        "HighBit": 11,
        "ImageOrientationPatient": [
          0.99999157803603,
          0.0009439651321,
          0.00399409399407,
          2.362274e-10,
          0.97318969638339,
          -0.2300039452992
        ],
        "ImagePositionPatient": [
          -767.76139279391,
          -785.27685632857,
          133.60884903601
        ],
        "ImageType": [
          "ORIGINAL",
          "PRIMARY",
          "M",
          "ND",
          "ECHO_00",
          "MOSAIC"
        ],
        "ImagedNucleus": "1H",
        "ImagingFrequency": 297.204957,
        "InPlanePhaseEncodingDirection": "ROW",
        "LargestImagePixelValue": 4095,
        "MRAcquisitionType": "2D",
        "MagneticFieldStrength": 6.98,
        "Manufacturer": "SIEMENS",
        "ManufacturerModelName": "Investigational_Device_7T",
        "Modality": "MR",
        "NumberOfAverages": 1.0,
        "NumberOfPhaseEncodingSteps": 94,
        "PercentPhaseFieldOfView": 100.0,
        "PercentSampling": 100.0,
        "PerformedProcedureStepStartTime": "180825.140000",
        "PhotometricInterpretation": "MONOCHROME2",
        "PixelBandwidth": 2003.0,
        "PixelRepresentation": 0,
        "PixelSpacing": [
          2.0,
          2.0
        ],
        "PositionReferenceIndicator": "",
        "ProcedureCodeSequence": [
          {
            "CodeMeaning": "MRI Procedure Limited",
            "CodeValue": "MI01491",
            "CodingSchemeDesignator": "USA Standard",
            "ContextIdentifier": "4000103350"
          }
        ],
        "ProtocolName": "NIH_EPI_2.0iso_TR2_Run04",
        "ReferencedStudySequence": [
          {
            "ReferencedSOPClassUID": "1.2.840.10008.3.1.2.3.1",
            "ReferencedSOPInstanceUID": "1.2.840.113564.9.1.2723958737.61.2.5000069100"
          }
        ],
        "RepetitionTime": 2000.0,
        "RequestedProcedureCodeSequence": [
          {
            "CodeMeaning": "MRI Procedure Limited",
            "CodeValue": "MI01491",
            "CodingSchemeDesignator": "USA Standard",
            "ContextIdentifier": "4000103350"
          }
        ],
        "RequestingService": "MHMI",
        "Rows": 768,
        "SAR": 0.0670380477419,
        "SamplesPerPixel": 1,
        "ScanningSequence": "EP",
        "SequenceName": "epfid2d1_96",
        "SequenceVariant": "SK",
        "SeriesDescription": "NIH_EPI_2.0iso_TR2_Run04",
        "SeriesNumber": 8,
        "SliceLocation": -47.438603685558,
        "SliceThickness": 2.0,
        "SmallestImagePixelValue": 0,
        "SoftwareVersions": "syngo MR B17",
        "SpacingBetweenSlices": 1.9999999851018,
        "TransmitCoilName": "32Ch_Head_7T",
        "VariableFlipAngleFlag": "N",
        "WindowCenterWidthExplanation": "Algo1",
        "dBdt": 0.0
      },
      "slices": {}
    },
    "modality": "bold",
    "run_id": 5,
    "session_id": "06",
    "subject_id": "001",
    "task_id": "HalfFovNoTask",
    "time": {
      "samples": {
        "AcquisitionNumber": [
          1,
          2,
          3,
          4,
          5,
          6,
          7,
          8,
          9,
          10,
          11,
          12,
          13,
          14,
          15,
          16,
          17,
          18,
          19,
          20,
          21,
          22,
          23,
          24,
          25,
          26,
          27,
          28,
          29,
          30,
          31,
          32,
          33,
          34,
          35,
          36,
          37,
          38,
          39,
          40,
          41,
          42,
          43,
          44,
          45,
          46,
          47,
          48,
          49,
          50,
          51,
          52,
          53,
          54,
          55,
          56,
          57,
          58,
          59,
          60,
          61,
          62,
          63,
          64,
          65,
          66,
          67,
          68,
          69,
          70,
          71,
          72,
          73,
          74,
          75,
          76,
          77,
          78,
          79,
          80,
          81,
          82,
          83,
          84,
          85,
          86,
          87,
          88,
          89,
          90,
          91,
          92,
          93,
          94,
          95,
          96,
          97,
          98,
          99,
          100,
          101,
          102,
          103,
          104,
          105,
          106,
          107,
          108,
          109,
          110,
          111,
          112,
          113,
          114,
          115,
          116,
          117,
          118,
          119,
          120,
          121,
          122,
          123,
          124,
          125,
          126,
          127,
          128,
          129,
          130,
          131,
          132,
          133,
          134,
          135,
          136,
          137,
          138,
          139,
          140,
          141,
          142,
          143,
          144,
          145,
          146,
          147,
          148,
          149,
          150,
          151,
          152,
          153,
          154,
          155,
          156,
          157,
          158,
          159,
          160,
          161,
          162,
          163,
          164
        ],
        "AcquisitionTime": [
          "190007.922500",
          "190011.937500",
          "190013.947500",
          "190015.955000",
          "190017.962500",
          "190019.970000",
          "190021.980000",
          "190023.987500",
          "190025.995000",
          "190028.002500",
          "190030.010000",
          "190032.020000",
          "190034.027500",
          "190036.035000",
          "190038.042500",
          "190040.050000",
          "190042.060000",
          "190044.067500",
          "190046.075000",
          "190048.082500",
          "190050.092500",
          "190052.100000",
          "190054.107500",
          "190056.115000",
          "190058.122500",
          "190100.132500",
          "190102.140000",
          "190104.147500",
          "190106.155000",
          "190108.162500",
          "190110.172500",
          "190112.180000",
          "190114.187500",
          "190116.195000",
          "190118.202500",
          "190120.212500",
          "190122.220000",
          "190124.227500",
          "190126.235000",
          "190128.245000",
          "190130.252500",
          "190132.260000",
          "190134.267500",
          "190136.275000",
          "190138.285000",
          "190140.292500",
          "190142.300000",
          "190144.307500",
          "190146.315000",
          "190148.325000",
          "190150.332500",
          "190152.340000",
          "190154.347500",
          "190156.357500",
          "190158.365000",
          "190200.372500",
          "190202.380000",
          "190204.387500",
          "190206.397500",
          "190208.405000",
          "190210.412500",
          "190212.420000",
          "190214.427500",
          "190216.437500",
          "190218.445000",
          "190220.452500",
          "190222.460000",
          "190224.470000",
          "190226.477500",
          "190228.485000",
          "190230.492500",
          "190232.500000",
          "190234.510000",
          "190236.517500",
          "190238.525000",
          "190240.532500",
          "190242.540000",
          "190244.550000",
          "190246.557500",
          "190248.565000",
          "190250.572500",
          "190252.580000",
          "190254.590000",
          "190256.597500",
          "190258.605000",
          "190300.612500",
          "190302.622500",
          "190304.630000",
          "190306.637500",
          "190308.645000",
          "190310.652500",
          "190312.662500",
          "190314.670000",
          "190316.677500",
          "190318.685000",
          "190320.692500",
          "190322.702500",
          "190324.710000",
          "190326.717500",
          "190328.725000",
          "190330.735000",
          "190332.742500",
          "190334.750000",
          "190336.757500",
          "190338.765000",
          "190340.775000",
          "190342.782500",
          "190344.790000",
          "190346.797500",
          "190348.805000",
          "190350.815000",
          "190352.822500",
          "190354.830000",
          "190356.837500",
          "190358.847500",
          "190400.855000",
          "190402.862500",
          "190404.870000",
          "190406.877500",
          "190408.887500",
          "190410.895000",
          "190412.902500",
          "190414.910000",
          "190416.917500",
          "190418.927500",
          "190420.935000",
          "190422.942500",
          "190424.950000",
          "190426.960000",
          "190428.967500",
          "190430.975000",
          "190432.982500",
          "190434.990000",
          "190437.000000",
          "190439.007500",
          "190441.015000",
          "190443.022500",
          "190445.030000",
          "190447.040000",
          "190449.047500",
          "190451.055000",
          "190453.062500",
          "190455.070000",
          "190457.080000",
          "190459.087500",
          "190501.095000",
          "190503.102500",
          "190505.112500",
          "190507.120000",
          "190509.127500",
          "190511.135000",
          "190513.142500",
          "190515.152500",
          "190517.160000",
          "190519.167500",
          "190521.175000",
          "190523.182500",
          "190525.192500",
          "190527.200000",
          "190529.207500",
          "190531.215000",
          "190533.225000",
          "190535.232500",
          "190537.240000"
        ],
        "ContentTime": [
          "190038.140000",
          "190038.140000",
          "190038.140000",
          "190038.140000",
          "190038.156000",
          "190038.156000",
          "190038.156000",
          "190038.156000",
          "190038.156000",
          "190038.171000",
          "190038.171000",
          "190038.171000",
          "190038.171000",
          "190038.171000",
          "190118.125000",
          "190118.125000",
          "190118.140000",
          "190118.140000",
          "190118.140000",
          "190118.140000",
          "190118.140000",
          "190118.156000",
          "190118.156000",
          "190118.156000",
          "190118.156000",
          "190118.156000",
          "190118.171000",
          "190118.171000",
          "190118.171000",
          "190118.171000",
          "190118.171000",
          "190118.171000",
          "190118.187000",
          "190118.187000",
          "190158.125000",
          "190158.125000",
          "190158.140000",
          "190158.140000",
          "190158.140000",
          "190158.140000",
          "190158.140000",
          "190158.140000",
          "190158.140000",
          "190158.156000",
          "190158.156000",
          "190158.156000",
          "190158.156000",
          "190158.156000",
          "190158.156000",
          "190158.171000",
          "190158.171000",
          "190158.171000",
          "190158.171000",
          "190158.171000",
          "190238.125000",
          "190238.140000",
          "190238.140000",
          "190238.140000",
          "190238.140000",
          "190238.140000",
          "190238.140000",
          "190238.156000",
          "190238.156000",
          "190238.156000",
          "190238.156000",
          "190238.156000",
          "190238.156000",
          "190238.171000",
          "190238.171000",
          "190238.171000",
          "190238.171000",
          "190238.171000",
          "190238.171000",
          "190238.187000",
          "190318.125000",
          "190318.140000",
          "190318.140000",
          "190318.140000",
          "190318.140000",
          "190318.140000",
          "190318.140000",
          "190318.156000",
          "190318.156000",
          "190318.156000",
          "190318.156000",
          "190318.171000",
          "190318.171000",
          "190318.171000",
          "190318.171000",
          "190318.171000",
          "190318.171000",
          "190318.187000",
          "190318.187000",
          "190318.187000",
          "190358.125000",
          "190358.140000",
          "190358.140000",
          "190358.140000",
          "190358.140000",
          "190358.140000",
          "190358.140000",
          "190358.156000",
          "190358.156000",
          "190358.156000",
          "190358.156000",
          "190358.171000",
          "190358.171000",
          "190358.171000",
          "190358.171000",
          "190358.171000",
          "190358.171000",
          "190358.171000",
          "190358.187000",
          "190358.187000",
          "190438.125000",
          "190438.140000",
          "190438.140000",
          "190438.140000",
          "190438.140000",
          "190438.140000",
          "190438.140000",
          "190438.156000",
          "190438.156000",
          "190438.156000",
          "190438.156000",
          "190438.156000",
          "190438.156000",
          "190438.156000",
          "190438.171000",
          "190438.171000",
          "190438.171000",
          "190438.171000",
          "190438.187000",
          "190438.187000",
          "190518.125000",
          "190518.140000",
          "190518.140000",
          "190518.140000",
          "190518.140000",
          "190518.140000",
          "190518.140000",
          "190518.156000",
          "190518.156000",
          "190518.156000",
          "190518.156000",
          "190518.156000",
          "190518.156000",
          "190518.156000",
          "190518.171000",
          "190518.171000",
          "190518.171000",
          "190518.171000",
          "190518.187000",
          "190518.187000",
          "190537.750000",
          "190537.750000",
          "190537.765000",
          "190537.765000",
          "190537.765000",
          "190537.765000",
          "190537.781000",
          "190537.781000",
          "190537.781000",
          "190537.781000"
        ],
        "InstanceCreationTime": [
          "190038.140000",
          "190038.140000",
          "190038.140000",
          "190038.140000",
          "190038.156000",
          "190038.156000",
          "190038.156000",
          "190038.156000",
          "190038.156000",
          "190038.171000",
          "190038.171000",
          "190038.171000",
          "190038.171000",
          "190038.171000",
          "190118.125000",
          "190118.125000",
          "190118.140000",
          "190118.140000",
          "190118.140000",
          "190118.140000",
          "190118.140000",
          "190118.156000",
          "190118.156000",
          "190118.156000",
          "190118.156000",
          "190118.156000",
          "190118.171000",
          "190118.171000",
          "190118.171000",
          "190118.171000",
          "190118.171000",
          "190118.171000",
          "190118.187000",
          "190118.187000",
          "190158.125000",
          "190158.125000",
          "190158.140000",
          "190158.140000",
          "190158.140000",
          "190158.140000",
          "190158.140000",
          "190158.140000",
          "190158.140000",
          "190158.156000",
          "190158.156000",
          "190158.156000",
          "190158.156000",
          "190158.156000",
          "190158.156000",
          "190158.171000",
          "190158.171000",
          "190158.171000",
          "190158.171000",
          "190158.171000",
          "190238.125000",
          "190238.140000",
          "190238.140000",
          "190238.140000",
          "190238.140000",
          "190238.140000",
          "190238.140000",
          "190238.156000",
          "190238.156000",
          "190238.156000",
          "190238.156000",
          "190238.156000",
          "190238.156000",
          "190238.171000",
          "190238.171000",
          "190238.171000",
          "190238.171000",
          "190238.171000",
          "190238.171000",
          "190238.187000",
          "190318.125000",
          "190318.140000",
          "190318.140000",
          "190318.140000",
          "190318.140000",
          "190318.140000",
          "190318.140000",
          "190318.156000",
          "190318.156000",
          "190318.156000",
          "190318.156000",
          "190318.171000",
          "190318.171000",
          "190318.171000",
          "190318.171000",
          "190318.171000",
          "190318.171000",
          "190318.187000",
          "190318.187000",
          "190318.187000",
          "190358.125000",
          "190358.140000",
          "190358.140000",
          "190358.140000",
          "190358.140000",
          "190358.140000",
          "190358.140000",
          "190358.156000",
          "190358.156000",
          "190358.156000",
          "190358.156000",
          "190358.171000",
          "190358.171000",
          "190358.171000",
          "190358.171000",
          "190358.171000",
          "190358.171000",
          "190358.171000",
          "190358.187000",
          "190358.187000",
          "190438.125000",
          "190438.140000",
          "190438.140000",
          "190438.140000",
          "190438.140000",
          "190438.140000",
          "190438.140000",
          "190438.156000",
          "190438.156000",
          "190438.156000",
          "190438.156000",
          "190438.156000",
          "190438.156000",
          "190438.156000",
          "190438.171000",
          "190438.171000",
          "190438.171000",
          "190438.171000",
          "190438.187000",
          "190438.187000",
          "190518.125000",
          "190518.140000",
          "190518.140000",
          "190518.140000",
          "190518.140000",
          "190518.140000",
          "190518.140000",
          "190518.156000",
          "190518.156000",
          "190518.156000",
          "190518.156000",
          "190518.156000",
          "190518.156000",
          "190518.156000",
          "190518.171000",
          "190518.171000",
          "190518.171000",
          "190518.171000",
          "190518.187000",
          "190518.187000",
          "190537.750000",
          "190537.750000",
          "190537.765000",
          "190537.765000",
          "190537.765000",
          "190537.765000",
          "190537.781000",
          "190537.781000",
          "190537.781000",
          "190537.781000"
        ],
        "InstanceNumber": [
          1,
          2,
          3,
          4,
          5,
          6,
          7,
          8,
          9,
          10,
          11,
          12,
          13,
          14,
          15,
          16,
          17,
          18,
          19,
          20,
          21,
          22,
          23,
          24,
          25,
          26,
          27,
          28,
          29,
          30,
          31,
          32,
          33,
          34,
          35,
          36,
          37,
          38,
          39,
          40,
          41,
          42,
          43,
          44,
          45,
          46,
          47,
          48,
          49,
          50,
          51,
          52,
          53,
          54,
          55,
          56,
          57,
          58,
          59,
          60,
          61,
          62,
          63,
          64,
          65,
          66,
          67,
          68,
          69,
          70,
          71,
          72,
          73,
          74,
          75,
          76,
          77,
          78,
          79,
          80,
          81,
          82,
          83,
          84,
          85,
          86,
          87,
          88,
          89,
          90,
          91,
          92,
          93,
          94,
          95,
          96,
          97,
          98,
          99,
          100,
          101,
          102,
          103,
          104,
          105,
          106,
          107,
          108,
          109,
          110,
          111,
          112,
          113,
          114,
          115,
          116,
          117,
          118,
          119,
          120,
          121,
          122,
          123,
          124,
          125,
          126,
          127,
          128,
          129,
          130,
          131,
          132,
          133,
          134,
          135,
          136,
          137,
          138,
          139,
          140,
          141,
          142,
          143,
          144,
          145,
          146,
          147,
          148,
          149,
          150,
          151,
          152,
          153,
          154,
          155,
          156,
          157,
          158,
          159,
          160,
          161,
          162,
          163,
          164
        ],
        "WindowCenter": [
          1137.0,
          1135.0,
          1135.0,
          1134.0,
          1133.0,
          1131.0,
          1131.0,
          1130.0,
          1131.0,
          1131.0,
          1131.0,
          1132.0,
          1131.0,
          1131.0,
          1132.0,
          1133.0,
          1135.0,
          1136.0,
          1138.0,
          1138.0,
          1137.0,
          1137.0,
          1137.0,
          1138.0,
          1139.0,
          1138.0,
          1137.0,
          1137.0,
          1136.0,
          1138.0,
          1136.0,
          1134.0,
          1133.0,
          1133.0,
          1133.0,
          1133.0,
          1132.0,
          1132.0,
          1132.0,
          1133.0,
          1132.0,
          1132.0,
          1133.0,
          1134.0,
          1135.0,
          1136.0,
          1134.0,
          1134.0,
          1135.0,
          1134.0,
          1133.0,
          1132.0,
          1132.0,
          1133.0,
          1133.0,
          1134.0,
          1136.0,
          1135.0,
          1134.0,
          1134.0,
          1134.0,
          1134.0,
          1134.0,
          1132.0,
          1132.0,
          1132.0,
          1131.0,
          1132.0,
          1133.0,
          1132.0,
          1133.0,
          1135.0,
          1135.0,
          1136.0,
          1136.0,
          1136.0,
          1136.0,
          1134.0,
          1135.0,
          1135.0,
          1134.0,
          1134.0,
          1135.0,
          1134.0,
          1136.0,
          1136.0,
          1135.0,
          1135.0,
          1134.0,
          1134.0,
          1136.0,
          1136.0,
          1136.0,
          1136.0,
          1134.0,
          1137.0,
          1138.0,
          1139.0,
          1136.0,
          1135.0,
          1135.0,
          1134.0,
          1133.0,
          1132.0,
          1132.0,
          1132.0,
          1133.0,
          1134.0,
          1135.0,
          1134.0,
          1132.0,
          1134.0,
          1134.0,
          1135.0,
          1135.0,
          1135.0,
          1136.0,
          1136.0,
          1135.0,
          1135.0,
          1134.0,
          1135.0,
          1135.0,
          1133.0,
          1133.0,
          1133.0,
          1133.0,
          1132.0,
          1132.0,
          1134.0,
          1134.0,
          1134.0,
          1131.0,
          1130.0,
          1130.0,
          1131.0,
          1127.0,
          1123.0,
          1123.0,
          1125.0,
          1129.0,
          1131.0,
          1134.0,
          1133.0,
          1137.0,
          1136.0,
          1138.0,
          1137.0,
          1135.0,
          1133.0,
          1132.0,
          1135.0,
          1134.0,
          1136.0,
          1137.0,
          1136.0,
          1136.0,
          1136.0,
          1136.0,
          1137.0,
          1136.0,
          1137.0,
          1137.0,
          1138.0
        ],
        "WindowWidth": [
          2712.0,
          2708.0,
          2707.0,
          2704.0,
          2699.0,
          2693.0,
          2695.0,
          2696.0,
          2696.0,
          2695.0,
          2696.0,
          2699.0,
          2698.0,
          2698.0,
          2701.0,
          2704.0,
          2711.0,
          2717.0,
          2720.0,
          2721.0,
          2719.0,
          2718.0,
          2720.0,
          2722.0,
          2724.0,
          2722.0,
          2714.0,
          2717.0,
          2716.0,
          2719.0,
          2715.0,
          2706.0,
          2702.0,
          2705.0,
          2706.0,
          2703.0,
          2700.0,
          2702.0,
          2704.0,
          2706.0,
          2702.0,
          2702.0,
          2705.0,
          2709.0,
          2711.0,
          2710.0,
          2707.0,
          2710.0,
          2713.0,
          2710.0,
          2704.0,
          2704.0,
          2703.0,
          2704.0,
          2707.0,
          2710.0,
          2714.0,
          2712.0,
          2708.0,
          2707.0,
          2708.0,
          2708.0,
          2707.0,
          2704.0,
          2701.0,
          2702.0,
          2700.0,
          2700.0,
          2702.0,
          2701.0,
          2704.0,
          2708.0,
          2709.0,
          2711.0,
          2712.0,
          2712.0,
          2711.0,
          2708.0,
          2709.0,
          2710.0,
          2708.0,
          2708.0,
          2709.0,
