{
  "aor": 0.0022444512195121955,
  "aqi": 0.006107770304878048,
  "bids_meta": {
    "AcquisitionMatrixPE": 96,
    "AcquisitionNumber": 1,
    "AcquisitionTime": "19:35:43.765000",
    "BandwidthPerPixelPhaseEncode": 52.083,
    "BaseResolution": 96,
    "BodyPartExamined": "HEAD",
    "ConversionSoftware": "dcm2niix",
    "ConversionSoftwareVersion": "v1.0.20180622 GCC6.3.0",
    "DerivedVendorReportedEchoSpacing": 0.000600004,
    "DeviceSerialNumber": "18926",
    "DwellTime": 2.6e-06,
    "EchoTime": 0.025,
    "EffectiveEchoSpacing": 0.000200001,
    "FlipAngle": 50,
    "ImageOrientationPatientDICOM": [
      0.999992,
      0.000943965,
      0.00399409,
      2.36227e-10,
      0.97319,
      -0.230004
    ],
    "ImageType": [
      "ORIGINAL",
      "PRIMARY",
      "M",
      "ND",
      "ECHO",
      "00",
      "MOSAIC"
    ],
    "InPlanePhaseEncodingDirectionDICOM": "ROW",
    "InstitutionName": "NIMH",
    "InstitutionalDepartmentName": "Department",
    "MRAcquisitionType": "2D",
    "MagneticFieldStrength": 6.98,
    "Manufacturer": "Siemens",
    "ManufacturersModelName": "Investigational_Device_7T",
    "Modality": "MR",
    "ParallelReductionFactorInPlane": 3,
    "PartialFourier": 1,
    "PatientPosition": "HFS",
    "PercentPhaseFOV": 100,
    "PhaseEncodingDirection": "i",
    "PhaseEncodingSteps": 94,
    "PhaseResolution": 1,
    "PixelBandwidth": 2003,
    "ProcedureStepDescription": "MRI_Procedure_Limited",
    "ProtocolName": "NIH_EPI_2.0iso_TR2_Run09",
    "PulseSequenceDetails": "%CustomerSeq%_inati_nih_epi",
    "ReceiveCoilName": "32Ch_Head_7T",
    "ReconMatrixPE": 96,
    "RepetitionTime": 2,
    "SAR": 0.067038,
    "ScanningSequence": "EP",
    "SequenceName": "epfid2d1_96",
    "SequenceVariant": "SK",
    "SeriesDescription": "NIH_EPI_2.0iso_TR2_Run09",
    "SeriesNumber": 13,
    "ShimSetting": [
      -52,
      238,
      714,
      825,
      -113,
      538,
      -356,
      -420
    ],
    "SliceThickness": 2,
    "SliceTiming": [
      1.005,
      0,
      1.04,
      0.0375,
      1.0775,
      0.075,
      1.115,
      0.1125,
      1.1525,
      0.15,
      1.19,
      0.185,
      1.2275,
      0.2225,
      1.265,
      0.26,
      1.3025,
      0.2975,
      1.3375,
      0.335,
      1.375,
      0.3725,
      1.4125,
      0.41,
      1.45,
      0.4475,
      1.4875,
      0.4825,
      1.525,
      0.52,
      1.5625,
      0.5575,
      1.6,
      0.595,
      1.635,
      0.6325,
      1.6725,
      0.67,
      1.71,
      0.7075,
      1.7475,
      0.7425,
      1.785,
      0.78,
      1.8225,
      0.8175,
      1.86,
      0.855,
      1.8975,
      0.8925,
      1.9325,
      0.93,
      1.97,
      0.9675
    ],
    "SoftwareVersions": "syngo_MR_B17",
    "SpacingBetweenSlices": 2,
    "StationName": "FMRIFD7T",
    "TaskName": "HalfFovNoTask",
    "TotalReadoutTime": 0.0190001,
    "TxRefAmp": 299,
    "dataset": "ds001555",
    "dcmmeta_affine": [
      [
        -1.9999831914901733,
        4.724547975065718e-10,
        0.008208253420889378,
        95.76705169677734
      ],
      [
        -0.0018879302078858018,
        1.9463794231414795,
        -0.4600040018558502,
        -54.247005462646484
      ],
      [
        0.007988188415765762,
        0.4600078761577606,
        1.9463629722595215,
        -61.97052001953125
      ],
      [
        0.0,
        0.0,
        0.0,
        1.0
      ]
    ],
    "dcmmeta_reorient_transform": [
      [
        0.0,
        -1.0,
        0.0,
        95.0
      ],
      [
        1.0,
        0.0,
        0.0,
        0.0
      ],
      [
        0.0,
        0.0,
        1.0,
        0.0
      ],
      [
        0.0,
        0.0,
        0.0,
        1.0
      ]
    ],
    "dcmmeta_shape": [
      96,
      96,
      54,
      164
    ],
    "dcmmeta_slice_dim": 2,
    "dcmmeta_version": 0.6,
    "global": {
      "const": {
        "AcquisitionMatrix": [
          0,
          96,
          96,
          0
        ],
        "Allergies": "No Known Allergies",
        "AngioFlag": "N",
        "BitsAllocated": 16,
        "BitsStored": 12,
        "BodyPartExamined": "HEAD",
        "Columns": 768,
        "EchoNumbers": 1,
        "EchoTime": 25.0,
        "EchoTrainLength": 1,
        "FlipAngle": 50.0,
        "HighBit": 11,
        "ImageOrientationPatient": [
          0.99999157803603,
          0.0009439651321,
          0.00399409399407,
          2.362274e-10,
          0.97318969638339,
          -0.2300039452992
        ],
        "ImagePositionPatient": [
          -767.76139279391,
          -785.27685632857,
          133.60884903601
        ],
        "ImageType": [
          "ORIGINAL",
          "PRIMARY",
          "M",
          "ND",
          "ECHO_00",
          "MOSAIC"
        ],
        "ImagedNucleus": "1H",
        "ImagingFrequency": 297.205043,
        "InPlanePhaseEncodingDirection": "ROW",
        "LargestImagePixelValue": 4095,
        "MRAcquisitionType": "2D",
        "MagneticFieldStrength": 6.98,
        "Manufacturer": "SIEMENS",
        "ManufacturerModelName": "Investigational_Device_7T",
        "Modality": "MR",
        "NumberOfAverages": 1.0,
        "NumberOfPhaseEncodingSteps": 94,
        "PercentPhaseFieldOfView": 100.0,
        "PercentSampling": 100.0,
        "PerformedProcedureStepStartTime": "180825.140000",
        "PhotometricInterpretation": "MONOCHROME2",
        "PixelBandwidth": 2003.0,
        "PixelRepresentation": 0,
        "PixelSpacing": [
          2.0,
          2.0
        ],
        "PositionReferenceIndicator": "",
        "ProcedureCodeSequence": [
          {
            "CodeMeaning": "MRI Procedure Limited",
            "CodeValue": "MI01491",
            "CodingSchemeDesignator": "USA Standard",
            "ContextIdentifier": "4000103350"
          }
        ],
        "ProtocolName": "NIH_EPI_2.0iso_TR2_Run09",
        "ReferencedStudySequence": [
          {
            "ReferencedSOPClassUID": "1.2.840.10008.3.1.2.3.1",
            "ReferencedSOPInstanceUID": "1.2.840.113564.9.1.2723958737.61.2.5000069100"
          }
        ],
        "RepetitionTime": 2000.0,
        "RequestedProcedureCodeSequence": [
          {
            "CodeMeaning": "MRI Procedure Limited",
            "CodeValue": "MI01491",
            "CodingSchemeDesignator": "USA Standard",
            "ContextIdentifier": "4000103350"
          }
        ],
        "RequestingService": "MHMI",
        "Rows": 768,
        "SAR": 0.0670380477419,
        "SamplesPerPixel": 1,
        "ScanningSequence": "EP",
        "SequenceName": "epfid2d1_96",
        "SequenceVariant": "SK",
        "SeriesDescription": "NIH_EPI_2.0iso_TR2_Run09",
        "SeriesNumber": 13,
        "SliceLocation": -47.438603685558,
        "SliceThickness": 2.0,
        "SmallestImagePixelValue": 0,
        "SoftwareVersions": "syngo MR B17",
        "SpacingBetweenSlices": 1.9999999851018,
        "TransmitCoilName": "32Ch_Head_7T",
        "VariableFlipAngleFlag": "N",
        "WindowCenterWidthExplanation": "Algo1",
        "dBdt": 0.0
      },
      "slices": {}
    },
    "modality": "bold",
    "run_id": 10,
    "session_id": "06",
    "subject_id": "001",
    "task_id": "HalfFovNoTask",
    "time": {
      "samples": {
        "AcquisitionNumber": [
          1,
          2,
          3,
          4,
          5,
          6,
          7,
          8,
          9,
          10,
          11,
          12,
          13,
          14,
          15,
          16,
          17,
          18,
          19,
          20,
          21,
          22,
          23,
          24,
          25,
          26,
          27,
          28,
          29,
          30,
          31,
          32,
          33,
          34,
          35,
          36,
          37,
          38,
          39,
          40,
          41,
          42,
          43,
          44,
          45,
          46,
          47,
          48,
          49,
          50,
          51,
          52,
          53,
          54,
          55,
          56,
          57,
          58,
          59,
          60,
          61,
          62,
          63,
          64,
          65,
          66,
          67,
          68,
          69,
          70,
          71,
          72,
          73,
          74,
          75,
          76,
          77,
          78,
          79,
          80,
          81,
          82,
          83,
          84,
          85,
          86,
          87,
          88,
          89,
          90,
          91,
          92,
          93,
          94,
          95,
          96,
          97,
          98,
          99,
          100,
          101,
          102,
          103,
          104,
          105,
          106,
          107,
          108,
          109,
          110,
          111,
          112,
          113,
          114,
          115,
          116,
          117,
          118,
          119,
          120,
          121,
          122,
          123,
          124,
          125,
          126,
          127,
          128,
          129,
          130,
          131,
          132,
          133,
          134,
          135,
          136,
          137,
          138,
          139,
          140,
          141,
          142,
          143,
          144,
          145,
          146,
          147,
          148,
          149,
          150,
          151,
          152,
          153,
          154,
          155,
          156,
          157,
          158,
          159,
          160,
          161,
          162,
          163,
          164
        ],
        "AcquisitionTime": [
          "193543.765000",
          "193547.780000",
          "193549.787500",
          "193551.795000",
          "193553.805000",
          "193555.812500",
          "193557.820000",
          "193559.827500",
          "193601.837500",
          "193603.845000",
          "193605.852500",
          "193607.860000",
          "193609.867500",
          "193611.877500",
          "193613.885000",
          "193615.892500",
          "193617.900000",
          "193619.907500",
          "193621.917500",
          "193623.925000",
          "193625.932500",
          "193627.940000",
          "193629.947500",
          "193631.957500",
          "193633.965000",
          "193635.972500",
          "193637.980000",
          "193639.990000",
          "193641.997500",
          "193644.005000",
          "193646.012500",
          "193648.020000",
          "193650.030000",
          "193652.037500",
          "193654.045000",
          "193656.052500",
          "193658.060000",
          "193700.070000",
          "193702.077500",
          "193704.085000",
          "193706.092500",
          "193708.102500",
          "193710.110000",
          "193712.117500",
          "193714.125000",
          "193716.132500",
          "193718.142500",
          "193720.150000",
          "193722.157500",
          "193724.165000",
          "193726.172500",
          "193728.182500",
          "193730.190000",
          "193732.197500",
          "193734.205000",
          "193736.215000",
          "193738.222500",
          "193740.230000",
          "193742.237500",
          "193744.245000",
          "193746.255000",
          "193748.262500",
          "193750.270000",
          "193752.277500",
          "193754.285000",
          "193756.295000",
          "193758.302500",
          "193800.310000",
          "193802.317500",
          "193804.325000",
          "193806.335000",
          "193808.342500",
          "193810.350000",
          "193812.357500",
          "193814.367500",
          "193816.375000",
          "193818.382500",
          "193820.390000",
          "193822.397500",
          "193824.407500",
          "193826.415000",
          "193828.422500",
          "193830.430000",
          "193832.437500",
          "193834.447500",
          "193836.455000",
          "193838.462500",
          "193840.470000",
          "193842.480000",
          "193844.487500",
          "193846.495000",
          "193848.502500",
          "193850.510000",
          "193852.520000",
          "193854.527500",
          "193856.535000",
          "193858.542500",
          "193900.550000",
          "193902.560000",
          "193904.567500",
          "193906.575000",
          "193908.582500",
          "193910.592500",
          "193912.600000",
          "193914.607500",
          "193916.615000",
          "193918.622500",
          "193920.632500",
          "193922.640000",
          "193924.647500",
          "193926.655000",
          "193928.662500",
          "193930.672500",
          "193932.680000",
          "193934.687500",
          "193936.695000",
          "193938.705000",
          "193940.712500",
          "193942.720000",
          "193944.727500",
          "193946.735000",
          "193948.745000",
          "193950.752500",
          "193952.760000",
          "193954.767500",
          "193956.775000",
          "193958.785000",
          "194000.792500",
          "194002.800000",
          "194004.807500",
          "194006.815000",
          "194008.825000",
          "194010.832500",
          "194012.840000",
          "194014.847500",
          "194016.857500",
          "194018.865000",
          "194020.872500",
          "194022.880000",
          "194024.887500",
          "194026.897500",
          "194028.905000",
          "194030.912500",
          "194032.920000",
          "194034.927500",
          "194036.937500",
          "194038.945000",
          "194040.952500",
          "194042.960000",
          "194044.970000",
          "194046.977500",
          "194048.985000",
          "194050.992500",
          "194053.000000",
          "194055.010000",
          "194057.017500",
          "194059.025000",
          "194101.032500",
          "194103.040000",
          "194105.050000",
          "194107.057500",
          "194109.065000",
          "194111.072500",
          "194113.082500"
        ],
        "ContentTime": [
          "193631.812000",
          "193631.812000",
          "193631.812000",
          "193631.812000",
          "193631.812000",
          "193631.812000",
          "193631.828000",
          "193631.828000",
          "193631.828000",
          "193631.843000",
          "193631.843000",
          "193631.843000",
          "193631.843000",
          "193631.843000",
          "193631.843000",
          "193631.843000",
          "193631.859000",
          "193631.859000",
          "193631.859000",
          "193631.859000",
          "193631.875000",
          "193631.875000",
          "193631.875000",
          "193711.796000",
          "193711.796000",
          "193711.796000",
          "193711.796000",
          "193711.812000",
          "193711.812000",
          "193711.812000",
          "193711.812000",
          "193711.812000",
          "193711.828000",
          "193711.828000",
          "193711.828000",
          "193711.828000",
          "193711.828000",
          "193711.828000",
          "193711.843000",
          "193711.843000",
          "193711.843000",
          "193711.843000",
          "193711.843000",
          "193751.796000",
          "193751.796000",
          "193751.796000",
          "193751.812000",
          "193751.812000",
          "193751.812000",
          "193751.812000",
          "193751.812000",
          "193751.812000",
          "193751.828000",
          "193751.828000",
          "193751.828000",
          "193751.828000",
          "193751.843000",
          "193751.843000",
          "193751.843000",
          "193751.843000",
          "193751.843000",
          "193751.843000",
          "193751.859000",
          "193831.796000",
          "193831.796000",
          "193831.796000",
          "193831.812000",
          "193831.812000",
          "193831.812000",
          "193831.812000",
          "193831.812000",
          "193831.812000",
          "193831.828000",
          "193831.828000",
          "193831.828000",
          "193831.828000",
          "193831.828000",
          "193831.828000",
          "193831.843000",
          "193831.843000",
          "193831.843000",
          "193831.843000",
          "193831.859000",
          "193911.796000",
          "193911.796000",
          "193911.796000",
          "193911.796000",
          "193911.812000",
          "193911.812000",
          "193911.812000",
          "193911.812000",
          "193911.812000",
          "193911.812000",
          "193911.812000",
          "193911.828000",
          "193911.828000",
          "193911.828000",
          "193911.828000",
          "193911.828000",
          "193911.828000",
          "193911.843000",
          "193911.843000",
          "193911.843000",
          "193951.796000",
          "193951.796000",
          "193951.796000",
          "193951.796000",
          "193951.812000",
          "193951.812000",
          "193951.812000",
          "193951.812000",
          "193951.812000",
          "193951.812000",
          "193951.812000",
          "193951.828000",
          "193951.828000",
          "193951.828000",
          "193951.828000",
          "193951.828000",
          "193951.828000",
          "193951.843000",
          "193951.843000",
          "193951.843000",
          "194031.796000",
          "194031.796000",
          "194031.796000",
          "194031.796000",
          "194031.812000",
          "194031.812000",
          "194031.812000",
          "194031.812000",
          "194031.812000",
          "194031.812000",
          "194031.812000",
          "194031.828000",
          "194031.828000",
          "194031.828000",
          "194031.828000",
          "194031.828000",
          "194031.828000",
          "194031.843000",
          "194031.843000",
          "194031.843000",
          "194111.796000",
          "194111.796000",
          "194111.796000",
          "194111.796000",
          "194111.812000",
          "194111.812000",
          "194111.812000",
          "194111.812000",
          "194111.812000",
          "194111.812000",
          "194111.812000",
          "194111.828000",
          "194111.828000",
          "194111.828000",
          "194111.828000",
          "194111.828000",
          "194111.828000",
          "194111.843000",
          "194111.843000",
          "194111.843000",
          "194113.546000"
        ],
        "InstanceCreationTime": [
          "193631.812000",
          "193631.812000",
          "193631.812000",
          "193631.812000",
          "193631.812000",
          "193631.812000",
          "193631.828000",
          "193631.828000",
          "193631.828000",
          "193631.843000",
          "193631.843000",
          "193631.843000",
          "193631.843000",
          "193631.843000",
          "193631.843000",
          "193631.843000",
          "193631.859000",
          "193631.859000",
          "193631.859000",
          "193631.859000",
          "193631.875000",
          "193631.875000",
          "193631.875000",
          "193711.796000",
          "193711.796000",
          "193711.796000",
          "193711.796000",
          "193711.812000",
          "193711.812000",
          "193711.812000",
          "193711.812000",
          "193711.812000",
          "193711.828000",
          "193711.828000",
          "193711.828000",
          "193711.828000",
          "193711.828000",
          "193711.828000",
          "193711.843000",
          "193711.843000",
          "193711.843000",
          "193711.843000",
          "193711.843000",
          "193751.796000",
          "193751.796000",
          "193751.796000",
          "193751.812000",
          "193751.812000",
          "193751.812000",
          "193751.812000",
          "193751.812000",
          "193751.812000",
          "193751.828000",
          "193751.828000",
          "193751.828000",
          "193751.828000",
          "193751.843000",
          "193751.843000",
          "193751.843000",
          "193751.843000",
          "193751.843000",
          "193751.843000",
          "193751.859000",
          "193831.796000",
          "193831.796000",
          "193831.796000",
          "193831.812000",
          "193831.812000",
          "193831.812000",
          "193831.812000",
          "193831.812000",
          "193831.812000",
          "193831.828000",
          "193831.828000",
          "193831.828000",
          "193831.828000",
          "193831.828000",
          "193831.828000",
          "193831.843000",
          "193831.843000",
          "193831.843000",
          "193831.843000",
          "193831.859000",
          "193911.796000",
          "193911.796000",
          "193911.796000",
          "193911.796000",
          "193911.812000",
          "193911.812000",
          "193911.812000",
          "193911.812000",
          "193911.812000",
          "193911.812000",
          "193911.812000",
          "193911.828000",
          "193911.828000",
          "193911.828000",
          "193911.828000",
          "193911.828000",
          "193911.828000",
          "193911.843000",
          "193911.843000",
          "193911.843000",
          "193951.796000",
          "193951.796000",
          "193951.796000",
          "193951.796000",
          "193951.812000",
          "193951.812000",
          "193951.812000",
          "193951.812000",
          "193951.812000",
          "193951.812000",
          "193951.812000",
          "193951.828000",
          "193951.828000",
          "193951.828000",
          "193951.828000",
          "193951.828000",
          "193951.828000",
          "193951.843000",
          "193951.843000",
          "193951.843000",
          "194031.796000",
          "194031.796000",
          "194031.796000",
          "194031.796000",
          "194031.812000",
          "194031.812000",
          "194031.812000",
          "194031.812000",
          "194031.812000",
          "194031.812000",
          "194031.812000",
          "194031.828000",
          "194031.828000",
          "194031.828000",
          "194031.828000",
          "194031.828000",
          "194031.828000",
          "194031.843000",
          "194031.843000",
          "194031.843000",
          "194111.796000",
          "194111.796000",
          "194111.796000",
          "194111.796000",
          "194111.812000",
          "194111.812000",
          "194111.812000",
          "194111.812000",
          "194111.812000",
          "194111.812000",
          "194111.812000",
          "194111.828000",
          "194111.828000",
          "194111.828000",
          "194111.828000",
          "194111.828000",
          "194111.828000",
          "194111.843000",
          "194111.843000",
          "194111.843000",
          "194113.546000"
        ],
        "InstanceNumber": [
          1,
          2,
          3,
          4,
          5,
          6,
          7,
          8,
          9,
          10,
          11,
          12,
          13,
          14,
          15,
          16,
          17,
          18,
          19,
          20,
          21,
          22,
          23,
          24,
          25,
          26,
          27,
          28,
          29,
          30,
          31,
          32,
          33,
          34,
          35,
          36,
          37,
          38,
          39,
          40,
          41,
          42,
          43,
          44,
          45,
          46,
          47,
          48,
          49,
          50,
          51,
          52,
          53,
          54,
          55,
          56,
          57,
          58,
          59,
          60,
          61,
          62,
          63,
          64,
          65,
          66,
          67,
          68,
          69,
          70,
          71,
          72,
          73,
          74,
          75,
          76,
          77,
          78,
          79,
          80,
          81,
          82,
          83,
          84,
          85,
          86,
          87,
          88,
          89,
          90,
          91,
          92,
          93,
          94,
          95,
          96,
          97,
          98,
          99,
          100,
          101,
          102,
          103,
          104,
          105,
          106,
          107,
          108,
          109,
          110,
          111,
          112,
          113,
          114,
          115,
          116,
          117,
          118,
          119,
          120,
          121,
          122,
          123,
          124,
          125,
          126,
          127,
          128,
          129,
          130,
          131,
          132,
          133,
          134,
          135,
          136,
          137,
          138,
          139,
          140,
          141,
          142,
          143,
          144,
          145,
          146,
          147,
          148,
          149,
          150,
          151,
          152,
          153,
          154,
          155,
          156,
          157,
          158,
          159,
          160,
          161,
          162,
          163,
          164
        ],
        "WindowCenter": [
          1136.0,
          1133.0,
          1133.0,
          1132.0,
          1132.0,
          1132.0,
          1133.0,
          1134.0,
          1137.0,
          1138.0,
          1135.0,
          1134.0,
          1135.0,
          1135.0,
          1135.0,
          1134.0,
          1134.0,
          1134.0,
          1134.0,
          1135.0,
          1133.0,
          1134.0,
          1136.0,
          1136.0,
          1136.0,
          1135.0,
          1134.0,
          1134.0,
          1134.0,
          1134.0,
          1134.0,
          1134.0,
          1135.0,
          1135.0,
          1135.0,
          1133.0,
          1132.0,
          1132.0,
          1130.0,
          1130.0,
          1131.0,
          1132.0,
          1134.0,
          1134.0,
          1135.0,
          1136.0,
          1136.0,
          1133.0,
          1133.0,
          1133.0,
          1135.0,
          1135.0,
          1135.0,
          1135.0,
          1134.0,
          1133.0,
          1133.0,
          1133.0,
          1133.0,
          1135.0,
          1134.0,
          1136.0,
          1135.0,
          1134.0,
          1132.0,
          1131.0,
          1133.0,
          1135.0,
          1135.0,
          1134.0,
          1133.0,
          1134.0,
          1134.0,
          1136.0,
          1133.0,
          1130.0,
          1129.0,
          1132.0,
          1133.0,
          1133.0,
          1133.0,
          1134.0,
          1136.0,
          1137.0,
          1135.0,
          1134.0,
          1133.0,
          1132.0,
          1134.0,
          1134.0,
          1133.0,
          1133.0,
          1132.0,
          1133.0,
          1134.0,
          1133.0,
          1134.0,
          1135.0,
          1135.0,
          1133.0,
          1133.0,
          1135.0,
          1136.0,
          1134.0,
          1133.0,
          1128.0,
          1123.0,
          1123.0,
          1125.0,
          1124.0,
          1126.0,
          1128.0,
          1130.0,
          1132.0,
          1134.0,
          1134.0,
          1135.0,
          1135.0,
          1137.0,
          1138.0,
          1139.0,
          1139.0,
          1139.0,
          1137.0,
          1138.0,
          1137.0,
          1136.0,
          1136.0,
          1135.0,
          1135.0,
          1134.0,
          1132.0,
          1132.0,
          1132.0,
          1133.0,
          1133.0,
          1132.0,
          1131.0,
          1133.0,
          1132.0,
          1131.0,
          1132.0,
          1134.0,
          1135.0,
          1137.0,
          1136.0,
          1136.0,
          1138.0,
          1137.0,
          1136.0,
          1135.0,
          1134.0,
          1134.0,
          1132.0,
          1130.0,
          1130.0,
          1131.0,
          1132.0,
          1131.0,
          1131.0,
          1132.0,
          1133.0,
          1134.0,
          1136.0
        ],
        "WindowWidth": [
          2704.0,
          2698.0,
          2695.0,
          2695.0,
          2694.0,
          2696.0,
          2697.0,
          2701.0,
          2712.0,
          2711.0,
          2705.0,
          2704.0,
          2703.0,
          2707.0,
          2706.0,
          2703.0,
          2705.0,
          2704.0,
          2705.0,
          2704.0,
          2702.0,
          2706.0,
          2709.0,
          2710.0,
          2708.0,
          2704.0,
          2702.0,
          2704.0,
          2704.0,
          2703.0,
          2703.0,
          2703.0,
          2704.0,
          2705.0,
          2706.0,
          2701.0,
          2697.0,
          2696.0,
          2691.0,
          2691.0,
          2692.0,
          2695.0,
          2705.0,
          2700.0,
          2702.0,
          2707.0,
          2708.0,
          2697.0,
          2699.0,
          2698.0,
          2703.0,
          2706.0,
          2702.0,
          2704.0,
          2700.0,
          2697.0,
          2698.0,
          2697.0,
          2699.0,
          2705.0,
          2701.0,
          2707.0,
          2704.0,
          2697.0,
          2690.0,
          2690.0,
          2700.0,
          2703.0,
          2701.0,
          2700.0,
          2699.0,
          2702.0,
          2707.0,
          2707.0,
          2696.0,
          2685.0,
          2683.0,
          2695.0,
          2698.0,
          2697.0,
          2700.0,
          2703.0,
          2709.0,
