{
  "aor": 0.0020198170731707318,
  "aqi": 0.0054107435365853655,
  "bids_meta": {
    "AcquisitionMatrixPE": 96,
    "AcquisitionNumber": 1,
    "AcquisitionTime": "19:08:6.262500",
    "BandwidthPerPixelPhaseEncode": 52.083,
    "BaseResolution": 96,
    "BodyPartExamined": "HEAD",
    "ConversionSoftware": "dcm2niix",
    "ConversionSoftwareVersion": "v1.0.20180622 GCC6.3.0",
    "DerivedVendorReportedEchoSpacing": 0.000600004,
    "DeviceSerialNumber": "18926",
    "DwellTime": 2.6e-06,
    "EchoTime": 0.025,
    "EffectiveEchoSpacing": 0.000200001,
    "FlipAngle": 50,
    "ImageOrientationPatientDICOM": [
      0.999992,
      0.000943965,
      0.00399409,
      2.36227e-10,
      0.97319,
      -0.230004
    ],
    "ImageType": [
      "ORIGINAL",
      "PRIMARY",
      "M",
      "ND",
      "ECHO",
      "00",
      "MOSAIC"
    ],
    "InPlanePhaseEncodingDirectionDICOM": "ROW",
    "InstitutionName": "NIMH",
    "InstitutionalDepartmentName": "Department",
    "MRAcquisitionType": "2D",
    "MagneticFieldStrength": 6.98,
    "Manufacturer": "Siemens",
    "ManufacturersModelName": "Investigational_Device_7T",
    "Modality": "MR",
    "ParallelReductionFactorInPlane": 3,
    "PartialFourier": 1,
    "PatientPosition": "HFS",
    "PercentPhaseFOV": 100,
    "PhaseEncodingDirection": "i",
    "PhaseEncodingSteps": 94,
    "PhaseResolution": 1,
    "PixelBandwidth": 2003,
    "ProcedureStepDescription": "MRI_Procedure_Limited",
    "ProtocolName": "NIH_EPI_2.0iso_TR2_Run05",
    "PulseSequenceDetails": "%CustomerSeq%_inati_nih_epi",
    "ReceiveCoilName": "32Ch_Head_7T",
    "ReconMatrixPE": 96,
    "RepetitionTime": 2,
    "SAR": 0.067038,
    "ScanningSequence": "EP",
    "SequenceName": "epfid2d1_96",
    "SequenceVariant": "SK",
    "SeriesDescription": "NIH_EPI_2.0iso_TR2_Run05",
    "SeriesNumber": 9,
    "ShimSetting": [
      -52,
      238,
      714,
      825,
      -113,
      538,
      -356,
      -420
    ],
    "SliceThickness": 2,
    "SliceTiming": [
      1.005,
      0,
      1.04,
      0.0375,
      1.0775,
      0.075,
      1.115,
      0.1125,
      1.1525,
      0.1475,
      1.19,
      0.185,
      1.2275,
      0.2225,
      1.265,
      0.26,
      1.3,
      0.2975,
      1.3375,
      0.335,
      1.375,
      0.3725,
      1.4125,
      0.41,
      1.45,
      0.445,
      1.4875,
      0.4825,
      1.525,
      0.52,
      1.5625,
      0.5575,
      1.5975,
      0.595,
      1.635,
      0.6325,
      1.6725,
      0.67,
      1.71,
      0.7075,
      1.7475,
      0.7425,
      1.785,
      0.78,
      1.8225,
      0.8175,
      1.86,
      0.855,
      1.895,
      0.8925,
      1.9325,
      0.93,
      1.97,
      0.9675
    ],
    "SoftwareVersions": "syngo_MR_B17",
    "SpacingBetweenSlices": 2,
    "StationName": "FMRIFD7T",
    "TaskName": "HalfFovNoTask",
    "TotalReadoutTime": 0.0190001,
    "TxRefAmp": 299,
    "dataset": "ds001555",
    "dcmmeta_affine": [
      [
        -1.9999831914901733,
        4.724547975065718e-10,
        0.008208253420889378,
        95.76705169677734
      ],
      [
        -0.0018879302078858018,
        1.9463794231414795,
        -0.4600040018558502,
        -54.247005462646484
      ],
      [
        0.007988188415765762,
        0.4600078761577606,
        1.9463629722595215,
        -61.97052001953125
      ],
      [
        0.0,
        0.0,
        0.0,
        1.0
      ]
    ],
    "dcmmeta_reorient_transform": [
      [
        0.0,
        -1.0,
        0.0,
        95.0
      ],
      [
        1.0,
        0.0,
        0.0,
        0.0
      ],
      [
        0.0,
        0.0,
        1.0,
        0.0
      ],
      [
        0.0,
        0.0,
        0.0,
        1.0
      ]
    ],
    "dcmmeta_shape": [
      96,
      96,
      54,
      164
    ],
    "dcmmeta_slice_dim": 2,
    "dcmmeta_version": 0.6,
    "global": {
      "const": {
        "AcquisitionMatrix": [
          0,
          96,
          96,
          0
        ],
        "Allergies": "No Known Allergies",
        "AngioFlag": "N",
        "BitsAllocated": 16,
        "BitsStored": 12,
        "BodyPartExamined": "HEAD",
        "Columns": 768,
        "EchoNumbers": 1,
        "EchoTime": 25.0,
        "EchoTrainLength": 1,
        "FlipAngle": 50.0,
        "HighBit": 11,
        "ImageOrientationPatient": [
          0.99999157803603,
          0.0009439651321,
          0.00399409399407,
          2.362274e-10,
          0.97318969638339,
          -0.2300039452992
        ],
        "ImagePositionPatient": [
          -767.76139279391,
          -785.27685632857,
          133.60884903601
        ],
        "ImageType": [
          "ORIGINAL",
          "PRIMARY",
          "M",
          "ND",
          "ECHO_00",
          "MOSAIC"
        ],
        "ImagedNucleus": "1H",
        "ImagingFrequency": 297.204981,
        "InPlanePhaseEncodingDirection": "ROW",
        "LargestImagePixelValue": 4095,
        "MRAcquisitionType": "2D",
        "MagneticFieldStrength": 6.98,
        "Manufacturer": "SIEMENS",
        "ManufacturerModelName": "Investigational_Device_7T",
        "Modality": "MR",
        "NumberOfAverages": 1.0,
        "NumberOfPhaseEncodingSteps": 94,
        "PercentPhaseFieldOfView": 100.0,
        "PercentSampling": 100.0,
        "PerformedProcedureStepStartTime": "180825.140000",
        "PhotometricInterpretation": "MONOCHROME2",
        "PixelBandwidth": 2003.0,
        "PixelRepresentation": 0,
        "PixelSpacing": [
          2.0,
          2.0
        ],
        "PositionReferenceIndicator": "",
        "ProcedureCodeSequence": [
          {
            "CodeMeaning": "MRI Procedure Limited",
            "CodeValue": "MI01491",
            "CodingSchemeDesignator": "USA Standard",
            "ContextIdentifier": "4000103350"
          }
        ],
        "ProtocolName": "NIH_EPI_2.0iso_TR2_Run05",
        "ReferencedStudySequence": [
          {
            "ReferencedSOPClassUID": "1.2.840.10008.3.1.2.3.1",
            "ReferencedSOPInstanceUID": "1.2.840.113564.9.1.2723958737.61.2.5000069100"
          }
        ],
        "RepetitionTime": 2000.0,
        "RequestedProcedureCodeSequence": [
          {
            "CodeMeaning": "MRI Procedure Limited",
            "CodeValue": "MI01491",
            "CodingSchemeDesignator": "USA Standard",
            "ContextIdentifier": "4000103350"
          }
        ],
        "RequestingService": "MHMI",
        "Rows": 768,
        "SAR": 0.0670380477419,
        "SamplesPerPixel": 1,
        "ScanningSequence": "EP",
        "SequenceName": "epfid2d1_96",
        "SequenceVariant": "SK",
        "SeriesDescription": "NIH_EPI_2.0iso_TR2_Run05",
        "SeriesNumber": 9,
        "SliceLocation": -47.438603685558,
        "SliceThickness": 2.0,
        "SmallestImagePixelValue": 0,
        "SoftwareVersions": "syngo MR B17",
        "SpacingBetweenSlices": 1.9999999851018,
        "TransmitCoilName": "32Ch_Head_7T",
        "VariableFlipAngleFlag": "N",
        "WindowCenterWidthExplanation": "Algo1",
        "dBdt": 0.0
      },
      "slices": {}
    },
    "modality": "bold",
    "run_id": 6,
    "session_id": "06",
    "subject_id": "001",
    "task_id": "HalfFovNoTask",
    "time": {
      "samples": {
        "AcquisitionNumber": [
          1,
          2,
          3,
          4,
          5,
          6,
          7,
          8,
          9,
          10,
          11,
          12,
          13,
          14,
          15,
          16,
          17,
          18,
          19,
          20,
          21,
          22,
          23,
          24,
          25,
          26,
          27,
          28,
          29,
          30,
          31,
          32,
          33,
          34,
          35,
          36,
          37,
          38,
          39,
          40,
          41,
          42,
          43,
          44,
          45,
          46,
          47,
          48,
          49,
          50,
          51,
          52,
          53,
          54,
          55,
          56,
          57,
          58,
          59,
          60,
          61,
          62,
          63,
          64,
          65,
          66,
          67,
          68,
          69,
          70,
          71,
          72,
          73,
          74,
          75,
          76,
          77,
          78,
          79,
          80,
          81,
          82,
          83,
          84,
          85,
          86,
          87,
          88,
          89,
          90,
          91,
          92,
          93,
          94,
          95,
          96,
          97,
          98,
          99,
          100,
          101,
          102,
          103,
          104,
          105,
          106,
          107,
          108,
          109,
          110,
          111,
          112,
          113,
          114,
          115,
          116,
          117,
          118,
          119,
          120,
          121,
          122,
          123,
          124,
          125,
          126,
          127,
          128,
          129,
          130,
          131,
          132,
          133,
          134,
          135,
          136,
          137,
          138,
          139,
          140,
          141,
          142,
          143,
          144,
          145,
          146,
          147,
          148,
          149,
          150,
          151,
          152,
          153,
          154,
          155,
          156,
          157,
          158,
          159,
          160,
          161,
          162,
          163,
          164
        ],
        "AcquisitionTime": [
          "190806.262500",
          "190810.277500",
          "190812.285000",
          "190814.292500",
          "190816.302500",
          "190818.310000",
          "190820.317500",
          "190822.325000",
          "190824.332500",
          "190826.342500",
          "190828.350000",
          "190830.357500",
          "190832.365000",
          "190834.372500",
          "190836.382500",
          "190838.390000",
          "190840.397500",
          "190842.405000",
          "190844.415000",
          "190846.422500",
          "190848.430000",
          "190850.437500",
          "190852.445000",
          "190854.455000",
          "190856.462500",
          "190858.470000",
          "190900.477500",
          "190902.485000",
          "190904.495000",
          "190906.502500",
          "190908.510000",
          "190910.517500",
          "190912.527500",
          "190914.535000",
          "190916.542500",
          "190918.550000",
          "190920.557500",
          "190922.567500",
          "190924.575000",
          "190926.582500",
          "190928.590000",
          "190930.597500",
          "190932.607500",
          "190934.615000",
          "190936.622500",
          "190938.630000",
          "190940.640000",
          "190942.647500",
          "190944.655000",
          "190946.662500",
          "190948.670000",
          "190950.680000",
          "190952.687500",
          "190954.695000",
          "190956.702500",
          "190958.710000",
          "191000.720000",
          "191002.727500",
          "191004.735000",
          "191006.742500",
          "191008.752500",
          "191010.760000",
          "191012.767500",
          "191014.775000",
          "191016.782500",
          "191018.792500",
          "191020.800000",
          "191022.807500",
          "191024.815000",
          "191026.822500",
          "191028.832500",
          "191030.840000",
          "191032.847500",
          "191034.855000",
          "191036.862500",
          "191038.872500",
          "191040.880000",
          "191042.887500",
          "191044.895000",
          "191046.905000",
          "191048.912500",
          "191050.920000",
          "191052.927500",
          "191054.935000",
          "191056.945000",
          "191058.952500",
          "191100.960000",
          "191102.967500",
          "191104.975000",
          "191106.985000",
          "191108.992500",
          "191111.000000",
          "191113.007500",
          "191115.017500",
          "191117.025000",
          "191119.032500",
          "191121.040000",
          "191123.047500",
          "191125.057500",
          "191127.065000",
          "191129.072500",
          "191131.080000",
          "191133.087500",
          "191135.097500",
          "191137.105000",
          "191139.112500",
          "191141.120000",
          "191143.130000",
          "191145.137500",
          "191147.145000",
          "191149.152500",
          "191151.160000",
          "191153.170000",
          "191155.177500",
          "191157.185000",
          "191159.192500",
          "191201.200000",
          "191203.210000",
          "191205.217500",
          "191207.225000",
          "191209.232500",
          "191211.240000",
          "191213.250000",
          "191215.257500",
          "191217.265000",
          "191219.272500",
          "191221.282500",
          "191223.290000",
          "191225.297500",
          "191227.305000",
          "191229.312500",
          "191231.322500",
          "191233.330000",
          "191235.337500",
          "191237.345000",
          "191239.352500",
          "191241.362500",
          "191243.370000",
          "191245.377500",
          "191247.385000",
          "191249.395000",
          "191251.402500",
          "191253.410000",
          "191255.417500",
          "191257.425000",
          "191259.435000",
          "191301.442500",
          "191303.450000",
          "191305.457500",
          "191307.465000",
          "191309.475000",
          "191311.482500",
          "191313.490000",
          "191315.497500",
          "191317.507500",
          "191319.515000",
          "191321.522500",
          "191323.530000",
          "191325.537500",
          "191327.547500",
          "191329.555000",
          "191331.562500",
          "191333.570000",
          "191335.577500"
        ],
        "ContentTime": [
          "190902.828000",
          "190902.828000",
          "190902.828000",
          "190902.843000",
          "190902.843000",
          "190902.843000",
          "190902.843000",
          "190902.843000",
          "190902.843000",
          "190902.859000",
          "190902.859000",
          "190902.859000",
          "190902.859000",
          "190902.859000",
          "190902.859000",
          "190902.859000",
          "190902.875000",
          "190902.875000",
          "190902.875000",
          "190902.875000",
          "190902.875000",
          "190902.875000",
          "190902.890000",
          "190902.890000",
          "190902.890000",
          "190902.890000",
          "190902.890000",
          "190942.812000",
          "190942.828000",
          "190942.828000",
          "190942.828000",
          "190942.828000",
          "190942.828000",
          "190942.828000",
          "190942.843000",
          "190942.843000",
          "190942.843000",
          "190942.843000",
          "190942.843000",
          "190942.843000",
          "190942.843000",
          "190942.859000",
          "190942.859000",
          "190942.859000",
          "190942.859000",
          "190942.875000",
          "190942.875000",
          "191002.812000",
          "191002.828000",
          "191002.828000",
          "191002.828000",
          "191002.828000",
          "191002.828000",
          "191002.828000",
          "191002.843000",
          "191002.843000",
          "191002.843000",
          "191042.812000",
          "191042.828000",
          "191042.828000",
          "191042.828000",
          "191042.828000",
          "191042.828000",
          "191042.828000",
          "191042.843000",
          "191042.843000",
          "191042.843000",
          "191042.843000",
          "191042.843000",
          "191042.859000",
          "191042.859000",
          "191042.859000",
          "191042.859000",
          "191042.875000",
          "191042.875000",
          "191042.875000",
          "191042.875000",
          "191122.812000",
          "191122.828000",
          "191122.828000",
          "191122.828000",
          "191122.828000",
          "191122.828000",
          "191122.828000",
          "191122.843000",
          "191122.843000",
          "191122.843000",
          "191122.843000",
          "191122.859000",
          "191122.859000",
          "191122.859000",
          "191122.859000",
          "191122.859000",
          "191122.859000",
          "191122.875000",
          "191122.875000",
          "191122.875000",
          "191202.812000",
          "191202.828000",
          "191202.828000",
          "191202.828000",
          "191202.828000",
          "191202.828000",
          "191202.828000",
          "191202.843000",
          "191202.843000",
          "191202.843000",
          "191202.843000",
          "191202.843000",
          "191202.843000",
          "191202.859000",
          "191202.859000",
          "191202.859000",
          "191202.859000",
          "191202.859000",
          "191202.859000",
          "191202.859000",
          "191242.812000",
          "191242.828000",
          "191242.828000",
          "191242.828000",
          "191242.828000",
          "191242.828000",
          "191242.828000",
          "191242.843000",
          "191242.843000",
          "191242.843000",
          "191242.843000",
          "191242.843000",
          "191242.843000",
          "191242.843000",
          "191242.859000",
          "191242.859000",
          "191242.859000",
          "191242.859000",
          "191242.859000",
          "191242.859000",
          "191322.812000",
          "191322.828000",
          "191322.828000",
          "191322.828000",
          "191322.828000",
          "191322.828000",
          "191322.828000",
          "191322.843000",
          "191322.843000",
          "191322.843000",
          "191322.843000",
          "191322.843000",
          "191322.843000",
          "191322.843000",
          "191322.859000",
          "191322.859000",
          "191322.859000",
          "191322.859000",
          "191322.859000",
          "191322.859000",
          "191336.140000",
          "191336.140000",
          "191336.140000",
          "191336.156000",
          "191336.156000",
          "191336.156000",
          "191336.156000"
        ],
        "InstanceCreationTime": [
          "190902.828000",
          "190902.828000",
          "190902.828000",
          "190902.843000",
          "190902.843000",
          "190902.843000",
          "190902.843000",
          "190902.843000",
          "190902.843000",
          "190902.859000",
          "190902.859000",
          "190902.859000",
          "190902.859000",
          "190902.859000",
          "190902.859000",
          "190902.859000",
          "190902.875000",
          "190902.875000",
          "190902.875000",
          "190902.875000",
          "190902.875000",
          "190902.875000",
          "190902.890000",
          "190902.890000",
          "190902.890000",
          "190902.890000",
          "190902.890000",
          "190942.812000",
          "190942.828000",
          "190942.828000",
          "190942.828000",
          "190942.828000",
          "190942.828000",
          "190942.828000",
          "190942.843000",
          "190942.843000",
          "190942.843000",
          "190942.843000",
          "190942.843000",
          "190942.843000",
          "190942.843000",
          "190942.859000",
          "190942.859000",
          "190942.859000",
          "190942.859000",
          "190942.875000",
          "190942.875000",
          "191002.812000",
          "191002.828000",
          "191002.828000",
          "191002.828000",
          "191002.828000",
          "191002.828000",
          "191002.828000",
          "191002.843000",
          "191002.843000",
          "191002.843000",
          "191042.812000",
          "191042.828000",
          "191042.828000",
          "191042.828000",
          "191042.828000",
          "191042.828000",
          "191042.828000",
          "191042.843000",
          "191042.843000",
          "191042.843000",
          "191042.843000",
          "191042.843000",
          "191042.859000",
          "191042.859000",
          "191042.859000",
          "191042.859000",
          "191042.875000",
          "191042.875000",
          "191042.875000",
          "191042.875000",
          "191122.812000",
          "191122.828000",
          "191122.828000",
          "191122.828000",
          "191122.828000",
          "191122.828000",
          "191122.828000",
          "191122.843000",
          "191122.843000",
          "191122.843000",
          "191122.843000",
          "191122.859000",
          "191122.859000",
          "191122.859000",
          "191122.859000",
          "191122.859000",
          "191122.859000",
          "191122.875000",
          "191122.875000",
          "191122.875000",
          "191202.812000",
          "191202.828000",
          "191202.828000",
          "191202.828000",
          "191202.828000",
          "191202.828000",
          "191202.828000",
          "191202.843000",
          "191202.843000",
          "191202.843000",
          "191202.843000",
          "191202.843000",
          "191202.843000",
          "191202.859000",
          "191202.859000",
          "191202.859000",
          "191202.859000",
          "191202.859000",
          "191202.859000",
          "191202.859000",
          "191242.812000",
          "191242.828000",
          "191242.828000",
          "191242.828000",
          "191242.828000",
          "191242.828000",
          "191242.828000",
          "191242.843000",
          "191242.843000",
          "191242.843000",
          "191242.843000",
          "191242.843000",
          "191242.843000",
          "191242.843000",
          "191242.859000",
          "191242.859000",
          "191242.859000",
          "191242.859000",
          "191242.859000",
          "191242.859000",
          "191322.812000",
          "191322.828000",
          "191322.828000",
          "191322.828000",
          "191322.828000",
          "191322.828000",
          "191322.828000",
          "191322.843000",
          "191322.843000",
          "191322.843000",
          "191322.843000",
          "191322.843000",
          "191322.843000",
          "191322.843000",
          "191322.859000",
          "191322.859000",
          "191322.859000",
          "191322.859000",
          "191322.859000",
          "191322.859000",
          "191336.140000",
          "191336.140000",
          "191336.140000",
          "191336.156000",
          "191336.156000",
          "191336.156000",
          "191336.156000"
        ],
        "InstanceNumber": [
          1,
          2,
          3,
          4,
          5,
          6,
          7,
          8,
          9,
          10,
          11,
          12,
          13,
          14,
          15,
          16,
          17,
          18,
          19,
          20,
          21,
          22,
          23,
          24,
          25,
          26,
          27,
          28,
          29,
          30,
          31,
          32,
          33,
          34,
          35,
          36,
          37,
          38,
          39,
          40,
          41,
          42,
          43,
          44,
          45,
          46,
          47,
          48,
          49,
          50,
          51,
          52,
          53,
          54,
          55,
          56,
          57,
          58,
          59,
          60,
          61,
          62,
          63,
          64,
          65,
          66,
          67,
          68,
          69,
          70,
          71,
          72,
          73,
          74,
          75,
          76,
          77,
          78,
          79,
          80,
          81,
          82,
          83,
          84,
          85,
          86,
          87,
          88,
          89,
          90,
          91,
          92,
          93,
          94,
          95,
          96,
          97,
          98,
          99,
          100,
          101,
          102,
          103,
          104,
          105,
          106,
          107,
          108,
          109,
          110,
          111,
          112,
          113,
          114,
          115,
          116,
          117,
          118,
          119,
          120,
          121,
          122,
          123,
          124,
          125,
          126,
          127,
          128,
          129,
          130,
          131,
          132,
          133,
          134,
          135,
          136,
          137,
          138,
          139,
          140,
          141,
          142,
          143,
          144,
          145,
          146,
          147,
          148,
          149,
          150,
          151,
          152,
          153,
          154,
          155,
          156,
          157,
          158,
          159,
          160,
          161,
          162,
          163,
          164
        ],
        "WindowCenter": [
          1138.0,
          1136.0,
          1135.0,
          1134.0,
          1135.0,
          1134.0,
          1134.0,
          1133.0,
          1136.0,
          1137.0,
          1136.0,
          1133.0,
          1134.0,
          1137.0,
          1137.0,
          1138.0,
          1137.0,
          1137.0,
          1137.0,
          1137.0,
          1137.0,
          1136.0,
          1136.0,
          1136.0,
          1136.0,
          1137.0,
          1136.0,
          1137.0,
          1137.0,
          1135.0,
          1133.0,
          1133.0,
          1132.0,
          1133.0,
          1132.0,
          1132.0,
          1133.0,
          1134.0,
          1136.0,
          1136.0,
          1133.0,
          1131.0,
          1131.0,
          1132.0,
          1134.0,
          1133.0,
          1134.0,
          1134.0,
          1136.0,
          1138.0,
          1137.0,
          1137.0,
          1136.0,
          1135.0,
          1136.0,
          1137.0,
          1135.0,
          1133.0,
          1133.0,
          1134.0,
          1136.0,
          1135.0,
          1134.0,
          1135.0,
          1135.0,
          1137.0,
          1137.0,
          1135.0,
          1135.0,
          1136.0,
          1134.0,
          1135.0,
          1135.0,
          1134.0,
          1137.0,
          1137.0,
          1136.0,
          1134.0,
          1132.0,
          1133.0,
          1134.0,
          1133.0,
          1133.0,
          1133.0,
          1133.0,
          1135.0,
          1136.0,
          1136.0,
          1137.0,
          1136.0,
          1136.0,
          1136.0,
          1135.0,
          1136.0,
          1135.0,
          1137.0,
          1138.0,
          1136.0,
          1136.0,
          1134.0,
          1133.0,
          1133.0,
          1133.0,
          1133.0,
          1131.0,
          1132.0,
          1132.0,
          1134.0,
          1136.0,
          1135.0,
          1134.0,
          1135.0,
          1135.0,
          1137.0,
          1137.0,
          1136.0,
          1136.0,
          1136.0,
          1137.0,
          1138.0,
          1136.0,
          1136.0,
          1136.0,
          1137.0,
          1137.0,
          1138.0,
          1138.0,
          1138.0,
          1136.0,
          1135.0,
          1137.0,
          1135.0,
          1134.0,
          1132.0,
          1132.0,
          1133.0,
          1133.0,
          1134.0,
          1133.0,
          1132.0,
          1134.0,
          1134.0,
          1135.0,
          1136.0,
          1135.0,
          1135.0,
          1135.0,
          1135.0,
          1136.0,
          1136.0,
          1136.0,
          1134.0,
          1134.0,
          1136.0,
          1134.0,
          1135.0,
          1133.0,
          1133.0,
          1134.0,
          1135.0,
          1135.0,
          1134.0,
          1135.0,
          1136.0
        ],
        "WindowWidth": [
          2711.0,
          2710.0,
          2705.0,
          2704.0,
          2708.0,
          2705.0,
          2701.0,
          2702.0,
          2714.0,
          2712.0,
          2706.0,
          2703.0,
          2705.0,
          2712.0,
          2714.0,
          2715.0,
          2712.0,
          2715.0,
          2713.0,
          2714.0,
          2714.0,
          2709.0,
          2709.0,
          2710.0,
          2708.0,
          2711.0,
          2709.0,
          2713.0,
          2713.0,
          2704.0,
          2699.0,
          2700.0,
          2699.0,
          2699.0,
          2698.0,
          2695.0,
          2699.0,
          2705.0,
          2711.0,
          2706.0,
          2696.0,
          2694.0,
          2696.0,
          2700.0,
          2703.0,
          2701.0,
          2702.0,
          2706.0,
          2710.0,
          2715.0,
          2712.0,
          2709.0,
          2710.0,
          2710.0,
          2711.0,
          2711.0,
          2706.0,
          2702.0,
          2702.0,
          2706.0,
          2710.0,
          2706.0,
          2704.0,
          2708.0,
          2708.0,
          2711.0,
          2714.0,
          2709.0,
          2707.0,
          2708.0,
          2706.0,
          2704.0,
          2705.0,
          2707.0,
          2713.0,
          2713.0,
          2706.0,
          2702.0,
          2699.0,
          2703.0,
          2705.0,
          2702.0,
          2701.0,
