{
  "aor": 0.001880060975609756,
  "aqi": 0.00930376,
  "bids_meta": {
    "AcquisitionMatrixPE": 96,
    "AcquisitionNumber": 1,
    "AcquisitionTime": "18:28:27.822500",
    "BandwidthPerPixelPhaseEncode": 52.083,
    "BaseResolution": 96,
    "BodyPartExamined": "HEAD",
    "ConversionSoftware": "dcm2niix",
    "ConversionSoftwareVersion": "v1.0.20180622 GCC6.3.0",
    "DerivedVendorReportedEchoSpacing": 0.000600004,
    "DeviceSerialNumber": "18926",
    "DwellTime": 2.6e-06,
    "EchoTime": 0.025,
    "EffectiveEchoSpacing": 0.000200001,
    "FlipAngle": 50,
    "ImageOrientationPatientDICOM": [
      1,
      -2.05103e-10,
      0,
      2.05103e-10,
      1,
      0
    ],
    "ImageType": [
      "ORIGINAL",
      "PRIMARY",
      "M",
      "ND",
      "ECHO",
      "00",
      "MOSAIC"
    ],
    "InPlanePhaseEncodingDirectionDICOM": "ROW",
    "InstitutionName": "NIMH",
    "InstitutionalDepartmentName": "Department",
    "MRAcquisitionType": "2D",
    "MagneticFieldStrength": 6.98,
    "Manufacturer": "Siemens",
    "ManufacturersModelName": "Investigational_Device_7T",
    "Modality": "MR",
    "ParallelReductionFactorInPlane": 3,
    "PartialFourier": 1,
    "PatientPosition": "HFS",
    "PercentPhaseFOV": 100,
    "PhaseEncodingDirection": "i",
    "PhaseEncodingSteps": 94,
    "PhaseResolution": 1,
    "PixelBandwidth": 2003,
    "ProcedureStepDescription": "MRI_Procedure_Limited",
    "ProtocolName": "NIH_EPI1.5_2.0iso_TR2_Run08",
    "PulseSequenceDetails": "%CustomerSeq%_inati_nih_epi_1_5",
    "ReceiveCoilName": "32Ch_Head_7T",
    "ReconMatrixPE": 96,
    "RepetitionTime": 2,
    "SAR": 0.0807215,
    "ScanningSequence": "EP",
    "SequenceName": "epfid2d1_96",
    "SequenceVariant": "SK",
    "SeriesDescription": "NIH_EPI1.5_2.0iso_TR2_Run08",
    "SeriesNumber": 12,
    "ShimSetting": [
      -127,
      95,
      1257,
      2238,
      -301,
      356,
      218,
      -344
    ],
    "SliceThickness": 2,
    "SliceTiming": [
      1.005,
      0,
      1.0425,
      0.0375,
      1.0775,
      0.075,
      1.115,
      0.1125,
      1.1525,
      0.15,
      1.19,
      0.1875,
      1.2275,
      0.2225,
      1.265,
      0.26,
      1.3025,
      0.2975,
      1.34,
      0.335,
      1.375,
      0.3725,
      1.4125,
      0.41,
      1.45,
      0.4475,
      1.4875,
      0.485,
      1.525,
      0.52,
      1.5625,
      0.5575,
      1.6,
      0.595,
      1.6375,
      0.6325,
      1.6725,
      0.67,
      1.71,
      0.7075,
      1.7475,
      0.745,
      1.785,
      0.78,
      1.8225,
      0.8175,
      1.86,
      0.855,
      1.8975,
      0.8925,
      1.9325,
      0.93,
      1.97,
      0.9675
    ],
    "SoftwareVersions": "syngo_MR_B17",
    "SpacingBetweenSlices": 2,
    "StationName": "FMRIFD7T",
    "TaskName": "FullFovAttentionTask",
    "TotalReadoutTime": 0.0190001,
    "TxRefAmp": 273,
    "dataset": "ds001555",
    "dcmmeta_affine": [
      [
        -2.0,
        4.1020681296188855e-10,
        0.0,
        96.0
      ],
      [
        4.1020681296188855e-10,
        2.0,
        0.0,
        -69.71084594726562
      ],
      [
        0.0,
        0.0,
        2.0,
        -36.132530212402344
      ],
      [
        0.0,
        0.0,
        0.0,
        1.0
      ]
    ],
    "dcmmeta_reorient_transform": [
      [
        0.0,
        -1.0,
        0.0,
        95.0
      ],
      [
        1.0,
        0.0,
        0.0,
        0.0
      ],
      [
        0.0,
        0.0,
        1.0,
        0.0
      ],
      [
        0.0,
        0.0,
        0.0,
        1.0
      ]
    ],
    "dcmmeta_shape": [
      96,
      96,
      54,
      164
    ],
    "dcmmeta_slice_dim": 2,
    "dcmmeta_version": 0.6,
    "global": {
      "const": {
        "AcquisitionMatrix": [
          0,
          96,
          96,
          0
        ],
        "Allergies": "No Known Allergies",
        "AngioFlag": "N",
        "BitsAllocated": 16,
        "BitsStored": 12,
        "BodyPartExamined": "HEAD",
        "Columns": 768,
        "EchoNumbers": 1,
        "EchoTime": 25.0,
        "EchoTrainLength": 1,
        "FlipAngle": 50.0,
        "HighBit": 11,
        "ImageOrientationPatient": [
          1.0,
          -2.051034e-10,
          0.0,
          2.051034e-10,
          1.0,
          0.0
        ],
        "ImagePositionPatient": [
          -768.00000015752,
          -792.28915580256,
          -36.132530212402
        ],
        "ImageType": [
          "ORIGINAL",
          "PRIMARY",
          "M",
          "ND",
          "ECHO_00",
          "MOSAIC"
        ],
        "ImagedNucleus": "1H",
        "ImagingFrequency": 297.205017,
        "InPlanePhaseEncodingDirection": "ROW",
        "MRAcquisitionType": "2D",
        "MagneticFieldStrength": 6.98,
        "Manufacturer": "SIEMENS",
        "ManufacturerModelName": "Investigational_Device_7T",
        "Modality": "MR",
        "NumberOfAverages": 1.0,
        "NumberOfPhaseEncodingSteps": 94,
        "PercentPhaseFieldOfView": 100.0,
        "PercentSampling": 100.0,
        "PerformedProcedureStepStartTime": "170616.921000",
        "PhotometricInterpretation": "MONOCHROME2",
        "PixelBandwidth": 2003.0,
        "PixelRepresentation": 0,
        "PixelSpacing": [
          2.0,
          2.0
        ],
        "PositionReferenceIndicator": "",
        "ProcedureCodeSequence": [
          {
            "CodeMeaning": "MRI Procedure Limited",
            "CodeValue": "MI01491",
            "CodingSchemeDesignator": "USA Standard",
            "ContextIdentifier": "4000141241"
          }
        ],
        "ProtocolName": "NIH_EPI1.5_2.0iso_TR2_Run08",
        "ReferencedStudySequence": [
          {
            "ReferencedSOPClassUID": "1.2.840.10008.3.1.2.3.1",
            "ReferencedSOPInstanceUID": "1.2.840.113564.9.1.2787814059.53.2.5000107115"
          }
        ],
        "RepetitionTime": 2000.0,
        "RequestedProcedureCodeSequence": [
          {
            "CodeMeaning": "MRI Procedure Limited",
            "CodeValue": "MI01491",
            "CodingSchemeDesignator": "USA Standard",
            "ContextIdentifier": "4000141241"
          }
        ],
        "RequestingService": "NIMH Molecular Imaging Branch",
        "Rows": 768,
        "SAR": 0.08072152853234,
        "SamplesPerPixel": 1,
        "ScanningSequence": "EP",
        "SequenceName": "epfid2d1_96",
        "SequenceVariant": "SK",
        "SeriesDescription": "NIH_EPI1.5_2.0iso_TR2_Run08",
        "SeriesNumber": 12,
        "SliceLocation": -36.132530212402,
        "SliceThickness": 2.0,
        "SmallestImagePixelValue": 0,
        "SoftwareVersions": "syngo MR B17",
        "SpacingBetweenSlices": 2.0,
        "TransmitCoilName": "32Ch_Head_7T",
        "VariableFlipAngleFlag": "N",
        "WindowCenterWidthExplanation": "Algo1",
        "dBdt": 0.0
      },
      "slices": {}
    },
    "modality": "bold",
    "run_id": 9,
    "session_id": "12",
    "subject_id": "003",
    "task_id": "FullFovAttentionTask",
    "time": {
      "samples": {
        "AcquisitionNumber": [
          1,
          2,
          3,
          4,
          5,
          6,
          7,
          8,
          9,
          10,
          11,
          12,
          13,
          14,
          15,
          16,
          17,
          18,
          19,
          20,
          21,
          22,
          23,
          24,
          25,
          26,
          27,
          28,
          29,
          30,
          31,
          32,
          33,
          34,
          35,
          36,
          37,
          38,
          39,
          40,
          41,
          42,
          43,
          44,
          45,
          46,
          47,
          48,
          49,
          50,
          51,
          52,
          53,
          54,
          55,
          56,
          57,
          58,
          59,
          60,
          61,
          62,
          63,
          64,
          65,
          66,
          67,
          68,
          69,
          70,
          71,
          72,
          73,
          74,
          75,
          76,
          77,
          78,
          79,
          80,
          81,
          82,
          83,
          84,
          85,
          86,
          87,
          88,
          89,
          90,
          91,
          92,
          93,
          94,
          95,
          96,
          97,
          98,
          99,
          100,
          101,
          102,
          103,
          104,
          105,
          106,
          107,
          108,
          109,
          110,
          111,
          112,
          113,
          114,
          115,
          116,
          117,
          118,
          119,
          120,
          121,
          122,
          123,
          124,
          125,
          126,
          127,
          128,
          129,
          130,
          131,
          132,
          133,
          134,
          135,
          136,
          137,
          138,
          139,
          140,
          141,
          142,
          143,
          144,
          145,
          146,
          147,
          148,
          149,
          150,
          151,
          152,
          153,
          154,
          155,
          156,
          157,
          158,
          159,
          160,
          161,
          162,
          163,
          164
        ],
        "AcquisitionTime": [
          "182827.822500",
          "182831.837500",
          "182833.845000",
          "182835.855000",
          "182837.862500",
          "182839.870000",
          "182841.877500",
          "182843.885000",
          "182845.895000",
          "182847.902500",
          "182849.910000",
          "182851.917500",
          "182853.925000",
          "182855.935000",
          "182857.942500",
          "182859.950000",
          "182901.957500",
          "182903.967500",
          "182905.975000",
          "182907.982500",
          "182909.990000",
          "182911.997500",
          "182914.007500",
          "182916.015000",
          "182918.022500",
          "182920.030000",
          "182922.037500",
          "182924.047500",
          "182926.055000",
          "182928.062500",
          "182930.070000",
          "182932.080000",
          "182934.087500",
          "182936.095000",
          "182938.102500",
          "182940.110000",
          "182942.120000",
          "182944.127500",
          "182946.135000",
          "182948.142500",
          "182950.150000",
          "182952.160000",
          "182954.167500",
          "182956.175000",
          "182958.182500",
          "183000.192500",
          "183002.200000",
          "183004.207500",
          "183006.215000",
          "183008.222500",
          "183010.232500",
          "183012.240000",
          "183014.247500",
          "183016.255000",
          "183018.262500",
          "183020.272500",
          "183022.280000",
          "183024.287500",
          "183026.295000",
          "183028.302500",
          "183030.312500",
          "183032.320000",
          "183034.327500",
          "183036.335000",
          "183038.345000",
          "183040.352500",
          "183042.360000",
          "183044.367500",
          "183046.375000",
          "183048.385000",
          "183050.392500",
          "183052.400000",
          "183054.407500",
          "183056.415000",
          "183058.425000",
          "183100.432500",
          "183102.440000",
          "183104.447500",
          "183106.457500",
          "183108.465000",
          "183110.472500",
          "183112.480000",
          "183114.487500",
          "183116.497500",
          "183118.505000",
          "183120.512500",
          "183122.520000",
          "183124.527500",
          "183126.537500",
          "183128.545000",
          "183130.552500",
          "183132.560000",
          "183134.570000",
          "183136.577500",
          "183138.585000",
          "183140.592500",
          "183142.600000",
          "183144.610000",
          "183146.617500",
          "183148.625000",
          "183150.632500",
          "183152.640000",
          "183154.650000",
          "183156.657500",
          "183158.665000",
          "183200.672500",
          "183202.680000",
          "183204.690000",
          "183206.697500",
          "183208.705000",
          "183210.712500",
          "183212.722500",
          "183214.730000",
          "183216.737500",
          "183218.745000",
          "183220.752500",
          "183222.762500",
          "183224.770000",
          "183226.777500",
          "183228.785000",
          "183230.792500",
          "183232.802500",
          "183234.810000",
          "183236.817500",
          "183238.825000",
          "183240.835000",
          "183242.842500",
          "183244.850000",
          "183246.857500",
          "183248.865000",
          "183250.875000",
          "183252.882500",
          "183254.890000",
          "183256.897500",
          "183258.905000",
          "183300.915000",
          "183302.922500",
          "183304.930000",
          "183306.937500",
          "183308.947500",
          "183310.955000",
          "183312.962500",
          "183314.970000",
          "183316.977500",
          "183318.987500",
          "183320.995000",
          "183323.002500",
          "183325.010000",
          "183327.017500",
          "183329.027500",
          "183331.035000",
          "183333.042500",
          "183335.050000",
          "183337.057500",
          "183339.067500",
          "183341.075000",
          "183343.082500",
          "183345.090000",
          "183347.100000",
          "183349.107500",
          "183351.115000",
          "183353.122500",
          "183355.130000",
          "183357.140000"
        ],
        "ContentTime": [
          "182914.921000",
          "182914.936000",
          "182914.936000",
          "182914.952000",
          "182914.952000",
          "182914.952000",
          "182914.952000",
          "182914.952000",
          "182914.952000",
          "182914.952000",
          "182914.968000",
          "182914.968000",
          "182914.968000",
          "182914.968000",
          "182914.968000",
          "182914.968000",
          "182914.983000",
          "182914.983000",
          "182914.983000",
          "182914.983000",
          "182914.983000",
          "182914.983000",
          "182954.921000",
          "182954.921000",
          "182954.921000",
          "182954.921000",
          "182954.936000",
          "182954.936000",
          "182954.936000",
          "182954.936000",
          "182954.936000",
          "182954.936000",
          "182954.952000",
          "182954.952000",
          "182954.952000",
          "182954.952000",
          "182954.952000",
          "182954.968000",
          "182954.968000",
          "182954.968000",
          "182954.983000",
          "182954.983000",
          "183034.921000",
          "183034.921000",
          "183034.921000",
          "183034.921000",
          "183034.921000",
          "183034.936000",
          "183034.936000",
          "183034.936000",
          "183034.936000",
          "183034.936000",
          "183034.952000",
          "183034.952000",
          "183034.952000",
          "183034.952000",
          "183034.968000",
          "183034.968000",
          "183034.968000",
          "183034.968000",
          "183034.968000",
          "183034.968000",
          "183114.921000",
          "183114.921000",
          "183114.921000",
          "183114.921000",
          "183114.921000",
          "183114.936000",
          "183114.936000",
          "183114.936000",
          "183114.936000",
          "183114.936000",
          "183114.936000",
          "183114.936000",
          "183114.952000",
          "183114.952000",
          "183114.952000",
          "183114.952000",
          "183114.952000",
          "183114.952000",
          "183114.968000",
          "183114.968000",
          "183154.921000",
          "183154.921000",
          "183154.921000",
          "183154.921000",
          "183154.921000",
          "183154.936000",
          "183154.936000",
          "183154.936000",
          "183154.936000",
          "183154.952000",
          "183154.952000",
          "183154.952000",
          "183154.952000",
          "183154.968000",
          "183154.968000",
          "183154.968000",
          "183154.968000",
          "183154.968000",
          "183154.983000",
          "183154.983000",
          "183234.921000",
          "183234.921000",
          "183234.921000",
          "183234.921000",
          "183234.921000",
          "183234.936000",
          "183234.936000",
          "183234.936000",
          "183234.936000",
          "183234.936000",
          "183234.936000",
          "183234.936000",
          "183234.952000",
          "183234.952000",
          "183234.952000",
          "183234.952000",
          "183234.952000",
          "183234.952000",
          "183234.968000",
          "183234.968000",
          "183314.921000",
          "183314.921000",
          "183314.921000",
          "183314.921000",
          "183314.936000",
          "183314.936000",
          "183314.952000",
          "183314.952000",
          "183314.952000",
          "183314.952000",
          "183314.952000",
          "183314.968000",
          "183314.968000",
          "183314.968000",
          "183314.968000",
          "183314.968000",
          "183314.968000",
          "183314.968000",
          "183314.983000",
          "183314.983000",
          "183354.921000",
          "183354.921000",
          "183354.921000",
          "183354.921000",
          "183354.921000",
          "183354.936000",
          "183354.952000",
          "183354.952000",
          "183354.952000",
          "183354.952000",
          "183354.968000",
          "183354.968000",
          "183354.968000",
          "183354.968000",
          "183354.983000",
          "183354.983000",
          "183354.983000",
          "183354.983000",
          "183354.983000",
          "183354.999000",
          "183358.577000",
          "183358.577000"
        ],
        "InstanceCreationTime": [
          "182914.921000",
          "182914.936000",
          "182914.936000",
          "182914.952000",
          "182914.952000",
          "182914.952000",
          "182914.952000",
          "182914.952000",
          "182914.952000",
          "182914.952000",
          "182914.968000",
          "182914.968000",
          "182914.968000",
          "182914.968000",
          "182914.968000",
          "182914.968000",
          "182914.983000",
          "182914.983000",
          "182914.983000",
          "182914.983000",
          "182914.983000",
          "182914.983000",
          "182954.921000",
          "182954.921000",
          "182954.921000",
          "182954.921000",
          "182954.936000",
          "182954.936000",
          "182954.936000",
          "182954.936000",
          "182954.936000",
          "182954.936000",
          "182954.952000",
          "182954.952000",
          "182954.952000",
          "182954.952000",
          "182954.952000",
          "182954.968000",
          "182954.968000",
          "182954.968000",
          "182954.983000",
          "182954.983000",
          "183034.921000",
          "183034.921000",
          "183034.921000",
          "183034.921000",
          "183034.921000",
          "183034.936000",
          "183034.936000",
          "183034.936000",
          "183034.936000",
          "183034.936000",
          "183034.952000",
          "183034.952000",
          "183034.952000",
          "183034.952000",
          "183034.968000",
          "183034.968000",
          "183034.968000",
          "183034.968000",
          "183034.968000",
          "183034.968000",
          "183114.921000",
          "183114.921000",
          "183114.921000",
          "183114.921000",
          "183114.921000",
          "183114.936000",
          "183114.936000",
          "183114.936000",
          "183114.936000",
          "183114.936000",
          "183114.936000",
          "183114.936000",
          "183114.952000",
          "183114.952000",
          "183114.952000",
          "183114.952000",
          "183114.952000",
          "183114.952000",
          "183114.968000",
          "183114.968000",
          "183154.921000",
          "183154.921000",
          "183154.921000",
          "183154.921000",
          "183154.921000",
          "183154.936000",
          "183154.936000",
          "183154.936000",
          "183154.936000",
          "183154.952000",
          "183154.952000",
          "183154.952000",
          "183154.952000",
          "183154.968000",
          "183154.968000",
          "183154.968000",
          "183154.968000",
          "183154.968000",
          "183154.983000",
          "183154.983000",
          "183234.921000",
          "183234.921000",
          "183234.921000",
          "183234.921000",
          "183234.921000",
          "183234.936000",
          "183234.936000",
          "183234.936000",
          "183234.936000",
          "183234.936000",
          "183234.936000",
          "183234.936000",
          "183234.952000",
          "183234.952000",
          "183234.952000",
          "183234.952000",
          "183234.952000",
          "183234.952000",
          "183234.968000",
          "183234.968000",
          "183314.921000",
          "183314.921000",
          "183314.921000",
          "183314.921000",
          "183314.936000",
          "183314.936000",
          "183314.952000",
          "183314.952000",
          "183314.952000",
          "183314.952000",
          "183314.952000",
          "183314.968000",
          "183314.968000",
          "183314.968000",
          "183314.968000",
          "183314.968000",
          "183314.968000",
          "183314.968000",
          "183314.983000",
          "183314.983000",
          "183354.921000",
          "183354.921000",
          "183354.921000",
          "183354.921000",
          "183354.921000",
          "183354.936000",
          "183354.952000",
          "183354.952000",
          "183354.952000",
          "183354.952000",
          "183354.968000",
          "183354.968000",
          "183354.968000",
          "183354.968000",
          "183354.983000",
          "183354.983000",
          "183354.983000",
          "183354.983000",
          "183354.983000",
          "183354.999000",
          "183358.577000",
          "183358.577000"
        ],
        "InstanceNumber": [
          1,
          2,
          3,
          4,
          5,
          6,
          7,
          8,
          9,
          10,
          11,
          12,
          13,
          14,
          15,
          16,
          17,
          18,
          19,
          20,
          21,
          22,
          23,
          24,
          25,
          26,
          27,
          28,
          29,
          30,
          31,
          32,
          33,
          34,
          35,
          36,
          37,
          38,
          39,
          40,
          41,
          42,
          43,
          44,
          45,
          46,
          47,
          48,
          49,
          50,
          51,
          52,
          53,
          54,
          55,
          56,
          57,
          58,
          59,
          60,
          61,
          62,
          63,
          64,
          65,
          66,
          67,
          68,
          69,
          70,
          71,
          72,
          73,
          74,
          75,
          76,
          77,
          78,
          79,
          80,
          81,
          82,
          83,
          84,
          85,
          86,
          87,
          88,
          89,
          90,
          91,
          92,
          93,
          94,
          95,
          96,
          97,
          98,
          99,
          100,
          101,
          102,
          103,
          104,
          105,
          106,
          107,
          108,
          109,
          110,
          111,
          112,
          113,
          114,
          115,
          116,
          117,
          118,
          119,
          120,
          121,
          122,
          123,
          124,
          125,
          126,
          127,
          128,
          129,
          130,
          131,
          132,
          133,
          134,
          135,
          136,
          137,
          138,
          139,
          140,
          141,
          142,
          143,
          144,
          145,
          146,
          147,
          148,
          149,
          150,
          151,
          152,
          153,
          154,
          155,
          156,
          157,
          158,
          159,
          160,
          161,
          162,
          163,
          164
        ],
        "LargestImagePixelValue": [
          3061,
          3091,
          3104,
          3081,
          3067,
          3074,
          3086,
          3062,
          3083,
          3043,
          3067,
          3062,
          3049,
          3032,
          3024,
          3032,
          3032,
          3004,
          3068,
          3001,
          3055,
          3030,
          3002,
          3062,
          3022,
          3048,
          3037,
          3046,
          3078,
          3033,
          3057,
          3087,
          3048,
          3065,
          3023,
          3054,
          3056,
          3033,
          3050,
          3032,
          3070,
          3060,
          2986,
          3064,
          3035,
          3049,
          3024,
          3030,
          3063,
          3038,
          3016,
          3049,
          3021,
          3065,
          3035,
          3023,
          3046,
          3007,
          3020,
          3039,
          3035,
          3037,
          2985,
          3049,
          3017,
          3038,
          3042,
          3001,
          3026,
          2978,
          3025,
          3002,
          3014,
          3023,
          2988,
          3014,
          3022,
          2995,
          2993,
          2975,
          3000,
          2989,
          2982,
          3015,
          2999,
          3012,
          2990,
          3003,
          3050,
          3037,
          3056,
          3113,
          3050,
          3089,
          3140,
          3063,
          3142,
          3092,
          3098,
          3135,
          3044,
          3118,
          3109,
          3145,
          3162,
          3074,
          3186,
          3156,
          3093,
          3171,
          3102,
          3174,
          3161,
          3148,
          3184,
          3095,
          3179,
          3223,
          3186,
          3204,
          3170,
          3138,
          3126,
          3107,
          3166,
          3104,
          3091,
          3194,
          3119,
          3096,
          3118,
          3087,
          3146,
          3172,
          3024,
          3185,
          3177,
          3168,
          3177,
          3139,
          3226,
          3165,
          3215,
          3222,
          3186,
          3195,
          3193,
          3177,
          3257,
          3168,
          3181,
          3224,
          3123,
          3164,
          3190,
          3114,
          3211,
          3168,
          3255,
          3179,
          3122,
          3158,
          3119,
          3147
        ],
        "WindowCenter": [
          723.0,
          722.0,
          721.0,
          721.0,
          723.0,
          724.0,
          724.0,
          724.0,
          725.0,
          726.0,
          726.0,
          725.0,
          725.0,
          726.0,
          727.0,
          727.0,
          727.0,
          727.0,
          726.0,
          725.0,
          724.0,
          724.0,
          723.0,
          723.0,
          724.0,
          725.0,
          724.0,
          724.0,
          724.0,
          725.0,
          725.0,
          724.0,
          723.0,
          723.0,
          723.0,
          723.0,
          723.0,
          724.0,
          724.0,
          723.0,
          723.0,
          725.0,
          725.0,
          724.0,
          723.0,
          724.0,
          725.0,
          724.0,
          723.0,
          723.0,
          722.0,
          722.0,
          723.0,
          723.0,
          723.0,
          723.0,
          723.0,
          724.0,
          723.0,
          722.0,
          722.0,
          723.0,
          723.0,
          723.0,
          723.0,
          723.0,
          724.0,
          725.0,
          726.0,
          726.0,
          726.0,
          725.0,
          723.0,
          722.0,
          722.0,
          722.0,
          723.0,
          722.0,
          722.0,
          722.0,
          723.0,
          723.0,
          723.0,
          723.0,
          724.0,
          724.0,
          724.0,
          723.0,
          722.0,
          721.0,
          722.0,
          722.0,
          722.0,
          722.0,
          722.0,
          722.0,
          723.0,
          723.0,
          723.0,
          724.0,
          723.0,
          723.0,
          723.0,
          724.0,
          725.0,
          724.0,
          725.0,
          725.0,
          723.0,
          724.0,
          724.0,
          723.0,
          723.0,
          723.0,
          724.0,
          724.0,
          724.0,
          724.0,
          724.0,
