{
  "aor": 0.0016985365853658535,
  "aqi": 0.010085975914634148,
  "bids_meta": {
    "AcquisitionMatrixPE": 96,
    "AcquisitionNumber": 1,
    "AcquisitionTime": "17:57:23.042500",
    "BandwidthPerPixelPhaseEncode": 52.083,
    "BaseResolution": 96,
    "BodyPartExamined": "HEAD",
    "ConversionSoftware": "dcm2niix",
    "ConversionSoftwareVersion": "v1.0.20180622 GCC6.3.0",
    "DerivedVendorReportedEchoSpacing": 0.000600004,
    "DeviceSerialNumber": "18926",
    "DwellTime": 2.6e-06,
    "EchoTime": 0.025,
    "EffectiveEchoSpacing": 0.000200001,
    "FlipAngle": 50,
    "ImageOrientationPatientDICOM": [
      1,
      -2.05103e-10,
      0,
      2.05103e-10,
      1,
      0
    ],
    "ImageType": [
      "ORIGINAL",
      "PRIMARY",
      "M",
      "ND",
      "ECHO",
      "00",
      "MOSAIC"
    ],
    "InPlanePhaseEncodingDirectionDICOM": "ROW",
    "InstitutionName": "NIMH",
    "InstitutionalDepartmentName": "Department",
    "MRAcquisitionType": "2D",
    "MagneticFieldStrength": 6.98,
    "Manufacturer": "Siemens",
    "ManufacturersModelName": "Investigational_Device_7T",
    "Modality": "MR",
    "ParallelReductionFactorInPlane": 3,
    "PartialFourier": 1,
    "PatientPosition": "HFS",
    "PercentPhaseFOV": 100,
    "PhaseEncodingDirection": "i",
    "PhaseEncodingSteps": 94,
    "PhaseResolution": 1,
    "PixelBandwidth": 2003,
    "ProcedureStepDescription": "MRI_Procedure_Limited",
    "ProtocolName": "NIH_EPI1.5_2.0iso_TR2_Run04",
    "PulseSequenceDetails": "%CustomerSeq%_inati_nih_epi_1_5",
    "ReceiveCoilName": "32Ch_Head_7T",
    "ReconMatrixPE": 96,
    "RepetitionTime": 2,
    "SAR": 0.0807215,
    "ScanningSequence": "EP",
    "SequenceName": "epfid2d1_96",
    "SequenceVariant": "SK",
    "SeriesDescription": "NIH_EPI1.5_2.0iso_TR2_Run04",
    "SeriesNumber": 8,
    "ShimSetting": [
      -127,
      95,
      1257,
      2238,
      -301,
      356,
      218,
      -344
    ],
    "SliceThickness": 2,
    "SliceTiming": [
      1.005,
      0,
      1.04,
      0.0375,
      1.0775,
      0.075,
      1.115,
      0.1125,
      1.1525,
      0.15,
      1.19,
      0.185,
      1.2275,
      0.2225,
      1.265,
      0.26,
      1.3025,
      0.2975,
      1.3375,
      0.335,
      1.375,
      0.3725,
      1.4125,
      0.41,
      1.45,
      0.445,
      1.4875,
      0.4825,
      1.525,
      0.52,
      1.5625,
      0.5575,
      1.6,
      0.595,
      1.635,
      0.6325,
      1.6725,
      0.67,
      1.71,
      0.7075,
      1.7475,
      0.7425,
      1.785,
      0.78,
      1.8225,
      0.8175,
      1.86,
      0.855,
      1.895,
      0.8925,
      1.9325,
      0.93,
      1.97,
      0.9675
    ],
    "SoftwareVersions": "syngo_MR_B17",
    "SpacingBetweenSlices": 2,
    "StationName": "FMRIFD7T",
    "TaskName": "FullFovAttentionTask",
    "TotalReadoutTime": 0.0190001,
    "TxRefAmp": 273,
    "dataset": "ds001555",
    "dcmmeta_affine": [
      [
        -2.0,
        4.1020681296188855e-10,
        0.0,
        96.0
      ],
      [
        4.1020681296188855e-10,
        2.0,
        0.0,
        -69.71084594726562
      ],
      [
        0.0,
        0.0,
        2.0,
        -36.132530212402344
      ],
      [
        0.0,
        0.0,
        0.0,
        1.0
      ]
    ],
    "dcmmeta_reorient_transform": [
      [
        0.0,
        -1.0,
        0.0,
        95.0
      ],
      [
        1.0,
        0.0,
        0.0,
        0.0
      ],
      [
        0.0,
        0.0,
        1.0,
        0.0
      ],
      [
        0.0,
        0.0,
        0.0,
        1.0
      ]
    ],
    "dcmmeta_shape": [
      96,
      96,
      54,
      164
    ],
    "dcmmeta_slice_dim": 2,
    "dcmmeta_version": 0.6,
    "global": {
      "const": {
        "AcquisitionMatrix": [
          0,
          96,
          96,
          0
        ],
        "Allergies": "No Known Allergies",
        "AngioFlag": "N",
        "BitsAllocated": 16,
        "BitsStored": 12,
        "BodyPartExamined": "HEAD",
        "Columns": 768,
        "EchoNumbers": 1,
        "EchoTime": 25.0,
        "EchoTrainLength": 1,
        "FlipAngle": 50.0,
        "HighBit": 11,
        "ImageOrientationPatient": [
          1.0,
          -2.051034e-10,
          0.0,
          2.051034e-10,
          1.0,
          0.0
        ],
        "ImagePositionPatient": [
          -768.00000015752,
          -792.28915580256,
          -36.132530212402
        ],
        "ImageType": [
          "ORIGINAL",
          "PRIMARY",
          "M",
          "ND",
          "ECHO_00",
          "MOSAIC"
        ],
        "ImagedNucleus": "1H",
        "ImagingFrequency": 297.204973,
        "InPlanePhaseEncodingDirection": "ROW",
        "MRAcquisitionType": "2D",
        "MagneticFieldStrength": 6.98,
        "Manufacturer": "SIEMENS",
        "ManufacturerModelName": "Investigational_Device_7T",
        "Modality": "MR",
        "NumberOfAverages": 1.0,
        "NumberOfPhaseEncodingSteps": 94,
        "PercentPhaseFieldOfView": 100.0,
        "PercentSampling": 100.0,
        "PerformedProcedureStepStartTime": "170616.921000",
        "PhotometricInterpretation": "MONOCHROME2",
        "PixelBandwidth": 2003.0,
        "PixelRepresentation": 0,
        "PixelSpacing": [
          2.0,
          2.0
        ],
        "PositionReferenceIndicator": "",
        "ProcedureCodeSequence": [
          {
            "CodeMeaning": "MRI Procedure Limited",
            "CodeValue": "MI01491",
            "CodingSchemeDesignator": "USA Standard",
            "ContextIdentifier": "4000141241"
          }
        ],
        "ProtocolName": "NIH_EPI1.5_2.0iso_TR2_Run04",
        "ReferencedStudySequence": [
          {
            "ReferencedSOPClassUID": "1.2.840.10008.3.1.2.3.1",
            "ReferencedSOPInstanceUID": "1.2.840.113564.9.1.2787814059.53.2.5000107115"
          }
        ],
        "RepetitionTime": 2000.0,
        "RequestedProcedureCodeSequence": [
          {
            "CodeMeaning": "MRI Procedure Limited",
            "CodeValue": "MI01491",
            "CodingSchemeDesignator": "USA Standard",
            "ContextIdentifier": "4000141241"
          }
        ],
        "RequestingService": "NIMH Molecular Imaging Branch",
        "Rows": 768,
        "SAR": 0.08072152853234,
        "SamplesPerPixel": 1,
        "ScanningSequence": "EP",
        "SequenceName": "epfid2d1_96",
        "SequenceVariant": "SK",
        "SeriesDescription": "NIH_EPI1.5_2.0iso_TR2_Run04",
        "SeriesNumber": 8,
        "SliceLocation": -36.132530212402,
        "SliceThickness": 2.0,
        "SmallestImagePixelValue": 0,
        "SoftwareVersions": "syngo MR B17",
        "SpacingBetweenSlices": 2.0,
        "TransmitCoilName": "32Ch_Head_7T",
        "VariableFlipAngleFlag": "N",
        "WindowCenterWidthExplanation": "Algo1",
        "dBdt": 0.0
      },
      "slices": {}
    },
    "modality": "bold",
    "run_id": 5,
    "session_id": "12",
    "subject_id": "003",
    "task_id": "FullFovAttentionTask",
    "time": {
      "samples": {
        "AcquisitionNumber": [
          1,
          2,
          3,
          4,
          5,
          6,
          7,
          8,
          9,
          10,
          11,
          12,
          13,
          14,
          15,
          16,
          17,
          18,
          19,
          20,
          21,
          22,
          23,
          24,
          25,
          26,
          27,
          28,
          29,
          30,
          31,
          32,
          33,
          34,
          35,
          36,
          37,
          38,
          39,
          40,
          41,
          42,
          43,
          44,
          45,
          46,
          47,
          48,
          49,
          50,
          51,
          52,
          53,
          54,
          55,
          56,
          57,
          58,
          59,
          60,
          61,
          62,
          63,
          64,
          65,
          66,
          67,
          68,
          69,
          70,
          71,
          72,
          73,
          74,
          75,
          76,
          77,
          78,
          79,
          80,
          81,
          82,
          83,
          84,
          85,
          86,
          87,
          88,
          89,
          90,
          91,
          92,
          93,
          94,
          95,
          96,
          97,
          98,
          99,
          100,
          101,
          102,
          103,
          104,
          105,
          106,
          107,
          108,
          109,
          110,
          111,
          112,
          113,
          114,
          115,
          116,
          117,
          118,
          119,
          120,
          121,
          122,
          123,
          124,
          125,
          126,
          127,
          128,
          129,
          130,
          131,
          132,
          133,
          134,
          135,
          136,
          137,
          138,
          139,
          140,
          141,
          142,
          143,
          144,
          145,
          146,
          147,
          148,
          149,
          150,
          151,
          152,
          153,
          154,
          155,
          156,
          157,
          158,
          159,
          160,
          161,
          162,
          163,
          164
        ],
        "AcquisitionTime": [
          "175723.042500",
          "175727.057500",
          "175729.065000",
          "175731.072500",
          "175733.082500",
          "175735.090000",
          "175737.097500",
          "175739.105000",
          "175741.112500",
          "175743.122500",
          "175745.130000",
          "175747.137500",
          "175749.145000",
          "175751.155000",
          "175753.162500",
          "175755.170000",
          "175757.177500",
          "175759.185000",
          "175801.195000",
          "175803.202500",
          "175805.210000",
          "175807.217500",
          "175809.225000",
          "175811.235000",
          "175813.242500",
          "175815.250000",
          "175817.257500",
          "175819.267500",
          "175821.275000",
          "175823.282500",
          "175825.290000",
          "175827.297500",
          "175829.307500",
          "175831.315000",
          "175833.322500",
          "175835.330000",
          "175837.337500",
          "175839.347500",
          "175841.355000",
          "175843.362500",
          "175845.370000",
          "175847.380000",
          "175849.387500",
          "175851.395000",
          "175853.402500",
          "175855.410000",
          "175857.420000",
          "175859.427500",
          "175901.435000",
          "175903.442500",
          "175905.450000",
          "175907.460000",
          "175909.467500",
          "175911.475000",
          "175913.482500",
          "175915.490000",
          "175917.500000",
          "175919.507500",
          "175921.515000",
          "175923.522500",
          "175925.532500",
          "175927.540000",
          "175929.547500",
          "175931.555000",
          "175933.562500",
          "175935.572500",
          "175937.580000",
          "175939.587500",
          "175941.595000",
          "175943.602500",
          "175945.612500",
          "175947.620000",
          "175949.627500",
          "175951.635000",
          "175953.645000",
          "175955.652500",
          "175957.660000",
          "175959.667500",
          "180001.675000",
          "180003.685000",
          "180005.692500",
          "180007.700000",
          "180009.707500",
          "180011.715000",
          "180013.725000",
          "180015.732500",
          "180017.740000",
          "180019.747500",
          "180021.757500",
          "180023.765000",
          "180025.772500",
          "180027.780000",
          "180029.787500",
          "180031.797500",
          "180033.805000",
          "180035.812500",
          "180037.820000",
          "180039.827500",
          "180041.837500",
          "180043.845000",
          "180045.852500",
          "180047.860000",
          "180049.867500",
          "180051.877500",
          "180053.885000",
          "180055.892500",
          "180057.900000",
          "180059.910000",
          "180101.917500",
          "180103.925000",
          "180105.932500",
          "180107.940000",
          "180109.950000",
          "180111.957500",
          "180113.965000",
          "180115.972500",
          "180117.980000",
          "180119.990000",
          "180121.997500",
          "180124.005000",
          "180126.012500",
          "180128.022500",
          "180130.030000",
          "180132.037500",
          "180134.045000",
          "180136.052500",
          "180138.062500",
          "180140.070000",
          "180142.077500",
          "180144.085000",
          "180146.092500",
          "180148.102500",
          "180150.110000",
          "180152.117500",
          "180154.125000",
          "180156.135000",
          "180158.142500",
          "180200.150000",
          "180202.157500",
          "180204.165000",
          "180206.175000",
          "180208.182500",
          "180210.190000",
          "180212.197500",
          "180214.205000",
          "180216.215000",
          "180218.222500",
          "180220.230000",
          "180222.237500",
          "180224.245000",
          "180226.255000",
          "180228.262500",
          "180230.270000",
          "180232.277500",
          "180234.287500",
          "180236.295000",
          "180238.302500",
          "180240.310000",
          "180242.317500",
          "180244.327500",
          "180246.335000",
          "180248.342500",
          "180250.350000",
          "180252.357500"
        ],
        "ContentTime": [
          "175807.405000",
          "175807.421000",
          "175807.436000",
          "175807.436000",
          "175807.436000",
          "175807.436000",
          "175807.436000",
          "175807.436000",
          "175807.436000",
          "175807.452000",
          "175807.452000",
          "175807.452000",
          "175807.452000",
          "175807.452000",
          "175807.452000",
          "175807.452000",
          "175807.468000",
          "175807.468000",
          "175807.468000",
          "175807.468000",
          "175847.405000",
          "175847.405000",
          "175847.405000",
          "175847.405000",
          "175847.405000",
          "175847.421000",
          "175847.421000",
          "175847.421000",
          "175847.421000",
          "175847.436000",
          "175847.436000",
          "175847.436000",
          "175847.436000",
          "175847.452000",
          "175847.452000",
          "175847.452000",
          "175847.452000",
          "175847.452000",
          "175847.452000",
          "175847.452000",
          "175927.405000",
          "175927.405000",
          "175927.405000",
          "175927.405000",
          "175927.405000",
          "175927.421000",
          "175927.421000",
          "175927.421000",
          "175927.421000",
          "175927.421000",
          "175927.421000",
          "175927.436000",
          "175927.436000",
          "175927.436000",
          "175927.436000",
          "175927.436000",
          "175927.436000",
          "175927.436000",
          "175927.452000",
          "175927.452000",
          "180007.405000",
          "180007.405000",
          "180007.405000",
          "180007.405000",
          "180007.421000",
          "180007.421000",
          "180007.421000",
          "180007.421000",
          "180007.421000",
          "180007.436000",
          "180007.436000",
          "180007.436000",
          "180007.436000",
          "180007.436000",
          "180007.436000",
          "180007.452000",
          "180007.452000",
          "180007.452000",
          "180007.452000",
          "180007.452000",
          "180047.405000",
          "180047.405000",
          "180047.405000",
          "180047.421000",
          "180047.421000",
          "180047.421000",
          "180047.421000",
          "180047.421000",
          "180047.421000",
          "180047.421000",
          "180047.436000",
          "180047.436000",
          "180047.436000",
          "180047.436000",
          "180047.436000",
          "180047.436000",
          "180047.452000",
          "180047.452000",
          "180047.452000",
          "180047.452000",
          "180127.405000",
          "180127.405000",
          "180127.421000",
          "180127.421000",
          "180127.421000",
          "180127.421000",
          "180127.421000",
          "180127.421000",
          "180127.436000",
          "180127.436000",
          "180127.436000",
          "180127.436000",
          "180127.452000",
          "180127.452000",
          "180127.452000",
          "180127.468000",
          "180127.468000",
          "180127.468000",
          "180127.468000",
          "180127.468000",
          "180207.405000",
          "180207.405000",
          "180207.405000",
          "180207.405000",
          "180207.405000",
          "180207.421000",
          "180207.421000",
          "180207.436000",
          "180207.436000",
          "180207.436000",
          "180207.436000",
          "180207.436000",
          "180207.436000",
          "180207.452000",
          "180207.452000",
          "180207.452000",
          "180207.452000",
          "180207.468000",
          "180207.468000",
          "180207.468000",
          "180247.405000",
          "180247.405000",
          "180247.405000",
          "180247.421000",
          "180247.421000",
          "180247.421000",
          "180247.421000",
          "180247.436000",
          "180247.436000",
          "180247.436000",
          "180247.436000",
          "180247.436000",
          "180247.436000",
          "180247.452000",
          "180247.452000",
          "180247.452000",
          "180247.452000",
          "180247.452000",
          "180247.452000",
          "180247.452000",
          "180253.483000",
          "180253.499000",
          "180253.499000",
          "180253.499000"
        ],
        "InstanceCreationTime": [
          "175807.405000",
          "175807.421000",
          "175807.436000",
          "175807.436000",
          "175807.436000",
          "175807.436000",
          "175807.436000",
          "175807.436000",
          "175807.436000",
          "175807.452000",
          "175807.452000",
          "175807.452000",
          "175807.452000",
          "175807.452000",
          "175807.452000",
          "175807.452000",
          "175807.468000",
          "175807.468000",
          "175807.468000",
          "175807.468000",
          "175847.405000",
          "175847.405000",
          "175847.405000",
          "175847.405000",
          "175847.405000",
          "175847.421000",
          "175847.421000",
          "175847.421000",
          "175847.421000",
          "175847.436000",
          "175847.436000",
          "175847.436000",
          "175847.436000",
          "175847.452000",
          "175847.452000",
          "175847.452000",
          "175847.452000",
          "175847.452000",
          "175847.452000",
          "175847.452000",
          "175927.405000",
          "175927.405000",
          "175927.405000",
          "175927.405000",
          "175927.405000",
          "175927.421000",
          "175927.421000",
          "175927.421000",
          "175927.421000",
          "175927.421000",
          "175927.421000",
          "175927.436000",
          "175927.436000",
          "175927.436000",
          "175927.436000",
          "175927.436000",
          "175927.436000",
          "175927.436000",
          "175927.452000",
          "175927.452000",
          "180007.405000",
          "180007.405000",
          "180007.405000",
          "180007.405000",
          "180007.421000",
          "180007.421000",
          "180007.421000",
          "180007.421000",
          "180007.421000",
          "180007.436000",
          "180007.436000",
          "180007.436000",
          "180007.436000",
          "180007.436000",
          "180007.436000",
          "180007.452000",
          "180007.452000",
          "180007.452000",
          "180007.452000",
          "180007.452000",
          "180047.405000",
          "180047.405000",
          "180047.405000",
          "180047.421000",
          "180047.421000",
          "180047.421000",
          "180047.421000",
          "180047.421000",
          "180047.421000",
          "180047.421000",
          "180047.436000",
          "180047.436000",
          "180047.436000",
          "180047.436000",
          "180047.436000",
          "180047.436000",
          "180047.452000",
          "180047.452000",
          "180047.452000",
          "180047.452000",
          "180127.405000",
          "180127.405000",
          "180127.421000",
          "180127.421000",
          "180127.421000",
          "180127.421000",
          "180127.421000",
          "180127.421000",
          "180127.436000",
          "180127.436000",
          "180127.436000",
          "180127.436000",
          "180127.452000",
          "180127.452000",
          "180127.452000",
          "180127.468000",
          "180127.468000",
          "180127.468000",
          "180127.468000",
          "180127.468000",
          "180207.405000",
          "180207.405000",
          "180207.405000",
          "180207.405000",
          "180207.405000",
          "180207.421000",
          "180207.421000",
          "180207.436000",
          "180207.436000",
          "180207.436000",
          "180207.436000",
          "180207.436000",
          "180207.436000",
          "180207.452000",
          "180207.452000",
          "180207.452000",
          "180207.452000",
          "180207.468000",
          "180207.468000",
          "180207.468000",
          "180247.405000",
          "180247.405000",
          "180247.405000",
          "180247.421000",
          "180247.421000",
          "180247.421000",
          "180247.421000",
          "180247.436000",
          "180247.436000",
          "180247.436000",
          "180247.436000",
          "180247.436000",
          "180247.436000",
          "180247.452000",
          "180247.452000",
          "180247.452000",
          "180247.452000",
          "180247.452000",
          "180247.452000",
          "180247.452000",
          "180253.483000",
          "180253.499000",
          "180253.499000",
          "180253.499000"
        ],
        "InstanceNumber": [
          1,
          2,
          3,
          4,
          5,
          6,
          7,
          8,
          9,
          10,
          11,
          12,
          13,
          14,
          15,
          16,
          17,
          18,
          19,
          20,
          21,
          22,
          23,
          24,
          25,
          26,
          27,
          28,
          29,
          30,
          31,
          32,
          33,
          34,
          35,
          36,
          37,
          38,
          39,
          40,
          41,
          42,
          43,
          44,
          45,
          46,
          47,
          48,
          49,
          50,
          51,
          52,
          53,
          54,
          55,
          56,
          57,
          58,
          59,
          60,
          61,
          62,
          63,
          64,
          65,
          66,
          67,
          68,
          69,
          70,
          71,
          72,
          73,
          74,
          75,
          76,
          77,
          78,
          79,
          80,
          81,
          82,
          83,
          84,
          85,
          86,
          87,
          88,
          89,
          90,
          91,
          92,
          93,
          94,
          95,
          96,
          97,
          98,
          99,
          100,
          101,
          102,
          103,
          104,
          105,
          106,
          107,
          108,
          109,
          110,
          111,
          112,
          113,
          114,
          115,
          116,
          117,
          118,
          119,
          120,
          121,
          122,
          123,
          124,
          125,
          126,
          127,
          128,
          129,
          130,
          131,
          132,
          133,
          134,
          135,
          136,
          137,
          138,
          139,
          140,
          141,
          142,
          143,
          144,
          145,
          146,
          147,
          148,
          149,
          150,
          151,
          152,
          153,
          154,
          155,
          156,
          157,
          158,
          159,
          160,
          161,
          162,
          163,
          164
        ],
        "LargestImagePixelValue": [
          3540,
          3575,
          3568,
          3516,
          3515,
          3490,
          3541,
          3564,
          3489,
          3492,
          3462,
          3472,
          3552,
          3523,
          3531,
          3515,
          3459,
          3512,
          3464,
          3474,
          3450,
          3431,
          3445,
          3399,
          3380,
          3392,
          3370,
          3380,
          3329,
          3334,
          3364,
          3317,
          3292,
          3234,
          3248,
          3294,
          3243,
          3251,
          3320,
          3267,
          3306,
          3338,
          3203,
          3255,
          3228,
          3215,
          3248,
          3145,
          3104,
          3115,
          3109,
          3051,
          3077,
          3012,
          3044,
          3101,
          3004,
          3015,
          3008,
          2997,
          2996,
          2958,
          3006,
          2971,
          2958,
          2968,
          2990,
          3066,
          2996,
          2999,
          2922,
          2951,
          2981,
          2945,
          2965,
          2929,
          2962,
          2927,
          2950,
          2976,
          2950,
          2968,
          2952,
          2930,
          2988,
          2955,
          2983,
          2987,
          2951,
          2952,
          2964,
          2938,
          2969,
          2980,
          2946,
          2989,
          2953,
          2977,
          2983,
          2953,
          2971,
          2991,
          2951,
          2988,
          2969,
          2970,
          2985,
          2944,
          2979,
          2995,
          2980,
          3005,
          2976,
          2991,
          2975,
          2972,
          2995,
          2957,
          3007,
          2970,
          2966,
          2971,
          2932,
          2998,
          2978,
          2959,
          3038,
          2939,
          2969,
          2966,
          2931,
          2951,
          2948,
          2952,
          2985,
          2949,
          2965,
          2962,
          2957,
          3001,
          2960,
          2986,
          2993,
          2994,
          2959,
          2986,
          2995,
          2953,
          3006,
          2928,
          2987,
          2985,
          2998,
          3018,
          2958,
          3026,
          2962,
          3000,
          3026,
          2973,
          3037,
          2998,
          2983,
          2978
        ],
        "WindowCenter": [
          732.0,
          732.0,
          733.0,
          733.0,
          733.0,
          733.0,
          733.0,
          734.0,
          734.0,
          734.0,
          733.0,
          733.0,
          734.0,
          736.0,
          735.0,
          734.0,
          733.0,
          733.0,
          732.0,
          731.0,
          732.0,
          733.0,
          733.0,
          732.0,
          733.0,
          733.0,
          733.0,
          732.0,
          732.0,
          732.0,
          732.0,
          731.0,
          732.0,
          732.0,
          732.0,
          732.0,
          732.0,
          732.0,
          732.0,
          733.0,
          734.0,
          733.0,
          732.0,
          731.0,
          731.0,
          732.0,
          732.0,
          730.0,
          729.0,
          729.0,
          729.0,
          728.0,
          729.0,
          730.0,
          731.0,
          731.0,
          730.0,
          730.0,
          729.0,
          728.0,
          728.0,
          729.0,
          729.0,
          729.0,
          728.0,
          728.0,
          730.0,
          731.0,
          731.0,
          730.0,
          730.0,
          731.0,
          730.0,
          730.0,
          730.0,
          731.0,
          731.0,
          731.0,
          730.0,
          729.0,
          728.0,
          729.0,
          728.0,
          728.0,
          729.0,
          728.0,
          728.0,
          728.0,
          728.0,
          729.0,
          729.0,
          729.0,
          729.0,
          729.0,
          728.0,
          728.0,
          728.0,
          728.0,
          729.0,
          731.0,
          731.0,
          730.0,
          728.0,
          728.0,
          729.0,
          730.0,
          729.0,
          729.0,
          729.0,
          729.0,
          728.0,
          729.0,
          728.0,
          728.0,
          728.0,
          729.0,
          729.0,
          729.0,
