{
  "aor": 0.0017357926829268291,
  "aqi": 0.007671162317073169,
  "bids_meta": {
    "AcquisitionMatrixPE": 96,
    "AcquisitionNumber": 1,
    "AcquisitionTime": "18:11:59.990000",
    "BandwidthPerPixelPhaseEncode": 52.083,
    "BaseResolution": 96,
    "BodyPartExamined": "HEAD",
    "ConversionSoftware": "dcm2niix",
    "ConversionSoftwareVersion": "v1.0.20180622 GCC6.3.0",
    "DerivedVendorReportedEchoSpacing": 0.000600004,
    "DeviceSerialNumber": "18926",
    "DwellTime": 2.6e-06,
    "EchoTime": 0.025,
    "EffectiveEchoSpacing": 0.000200001,
    "FlipAngle": 50,
    "ImageOrientationPatientDICOM": [
      1,
      -2.05103e-10,
      0,
      2.05103e-10,
      1,
      0
    ],
    "ImageType": [
      "ORIGINAL",
      "PRIMARY",
      "M",
      "ND",
      "ECHO",
      "00",
      "MOSAIC"
    ],
    "InPlanePhaseEncodingDirectionDICOM": "ROW",
    "InstitutionName": "NIMH",
    "InstitutionalDepartmentName": "Department",
    "MRAcquisitionType": "2D",
    "MagneticFieldStrength": 6.98,
    "Manufacturer": "Siemens",
    "ManufacturersModelName": "Investigational_Device_7T",
    "Modality": "MR",
    "ParallelReductionFactorInPlane": 3,
    "PartialFourier": 1,
    "PatientPosition": "HFS",
    "PercentPhaseFOV": 100,
    "PhaseEncodingDirection": "i",
    "PhaseEncodingSteps": 94,
    "PhaseResolution": 1,
    "PixelBandwidth": 2003,
    "ProcedureStepDescription": "MRI_Procedure_Limited",
    "ProtocolName": "NIH_EPI1.5_2.0iso_TR2_Run06",
    "PulseSequenceDetails": "%CustomerSeq%_inati_nih_epi_1_5",
    "ReceiveCoilName": "32Ch_Head_7T",
    "ReconMatrixPE": 96,
    "RepetitionTime": 2,
    "SAR": 0.0807215,
    "ScanningSequence": "EP",
    "SequenceName": "epfid2d1_96",
    "SequenceVariant": "SK",
    "SeriesDescription": "NIH_EPI1.5_2.0iso_TR2_Run06",
    "SeriesNumber": 10,
    "ShimSetting": [
      -127,
      95,
      1257,
      2238,
      -301,
      356,
      218,
      -344
    ],
    "SliceThickness": 2,
    "SliceTiming": [
      1.0025,
      0,
      1.04,
      0.035,
      1.0775,
      0.0725,
      1.115,
      0.11,
      1.1525,
      0.1475,
      1.1875,
      0.185,
      1.225,
      0.2225,
      1.2625,
      0.26,
      1.3,
      0.2975,
      1.3375,
      0.3325,
      1.375,
      0.37,
      1.4125,
      0.4075,
      1.45,
      0.445,
      1.485,
      0.4825,
      1.5225,
      0.52,
      1.56,
      0.5575,
      1.5975,
      0.595,
      1.635,
      0.63,
      1.6725,
      0.6675,
      1.71,
      0.705,
      1.7475,
      0.7425,
      1.7825,
      0.78,
      1.82,
      0.8175,
      1.8575,
      0.855,
      1.895,
      0.89,
      1.9325,
      0.9275,
      1.97,
      0.965
    ],
    "SoftwareVersions": "syngo_MR_B17",
    "SpacingBetweenSlices": 2,
    "StationName": "FMRIFD7T",
    "TaskName": "FullFovAttentionTask",
    "TotalReadoutTime": 0.0190001,
    "TxRefAmp": 273,
    "dataset": "ds001555",
    "dcmmeta_affine": [
      [
        -2.0,
        4.1020681296188855e-10,
        0.0,
        96.0
      ],
      [
        4.1020681296188855e-10,
        2.0,
        0.0,
        -69.71084594726562
      ],
      [
        0.0,
        0.0,
        2.0,
        -36.132530212402344
      ],
      [
        0.0,
        0.0,
        0.0,
        1.0
      ]
    ],
    "dcmmeta_reorient_transform": [
      [
        0.0,
        -1.0,
        0.0,
        95.0
      ],
      [
        1.0,
        0.0,
        0.0,
        0.0
      ],
      [
        0.0,
        0.0,
        1.0,
        0.0
      ],
      [
        0.0,
        0.0,
        0.0,
        1.0
      ]
    ],
    "dcmmeta_shape": [
      96,
      96,
      54,
      164
    ],
    "dcmmeta_slice_dim": 2,
    "dcmmeta_version": 0.6,
    "global": {
      "const": {
        "AcquisitionMatrix": [
          0,
          96,
          96,
          0
        ],
        "Allergies": "No Known Allergies",
        "AngioFlag": "N",
        "BitsAllocated": 16,
        "BitsStored": 12,
        "BodyPartExamined": "HEAD",
        "Columns": 768,
        "EchoNumbers": 1,
        "EchoTime": 25.0,
        "EchoTrainLength": 1,
        "FlipAngle": 50.0,
        "HighBit": 11,
        "ImageOrientationPatient": [
          1.0,
          -2.051034e-10,
          0.0,
          2.051034e-10,
          1.0,
          0.0
        ],
        "ImagePositionPatient": [
          -768.00000015752,
          -792.28915580256,
          -36.132530212402
        ],
        "ImageType": [
          "ORIGINAL",
          "PRIMARY",
          "M",
          "ND",
          "ECHO_00",
          "MOSAIC"
        ],
        "ImagedNucleus": "1H",
        "ImagingFrequency": 297.205004,
        "InPlanePhaseEncodingDirection": "ROW",
        "MRAcquisitionType": "2D",
        "MagneticFieldStrength": 6.98,
        "Manufacturer": "SIEMENS",
        "ManufacturerModelName": "Investigational_Device_7T",
        "Modality": "MR",
        "NumberOfAverages": 1.0,
        "NumberOfPhaseEncodingSteps": 94,
        "PercentPhaseFieldOfView": 100.0,
        "PercentSampling": 100.0,
        "PerformedProcedureStepStartTime": "170616.921000",
        "PhotometricInterpretation": "MONOCHROME2",
        "PixelBandwidth": 2003.0,
        "PixelRepresentation": 0,
        "PixelSpacing": [
          2.0,
          2.0
        ],
        "PositionReferenceIndicator": "",
        "ProcedureCodeSequence": [
          {
            "CodeMeaning": "MRI Procedure Limited",
            "CodeValue": "MI01491",
            "CodingSchemeDesignator": "USA Standard",
            "ContextIdentifier": "4000141241"
          }
        ],
        "ProtocolName": "NIH_EPI1.5_2.0iso_TR2_Run06",
        "ReferencedStudySequence": [
          {
            "ReferencedSOPClassUID": "1.2.840.10008.3.1.2.3.1",
            "ReferencedSOPInstanceUID": "1.2.840.113564.9.1.2787814059.53.2.5000107115"
          }
        ],
        "RepetitionTime": 2000.0,
        "RequestedProcedureCodeSequence": [
          {
            "CodeMeaning": "MRI Procedure Limited",
            "CodeValue": "MI01491",
            "CodingSchemeDesignator": "USA Standard",
            "ContextIdentifier": "4000141241"
          }
        ],
        "RequestingService": "NIMH Molecular Imaging Branch",
        "Rows": 768,
        "SAR": 0.08072152853234,
        "SamplesPerPixel": 1,
        "ScanningSequence": "EP",
        "SequenceName": "epfid2d1_96",
        "SequenceVariant": "SK",
        "SeriesDescription": "NIH_EPI1.5_2.0iso_TR2_Run06",
        "SeriesNumber": 10,
        "SliceLocation": -36.132530212402,
        "SliceThickness": 2.0,
        "SmallestImagePixelValue": 0,
        "SoftwareVersions": "syngo MR B17",
        "SpacingBetweenSlices": 2.0,
        "TransmitCoilName": "32Ch_Head_7T",
        "VariableFlipAngleFlag": "N",
        "WindowCenterWidthExplanation": "Algo1",
        "dBdt": 0.0
      },
      "slices": {}
    },
    "modality": "bold",
    "run_id": 7,
    "session_id": "12",
    "subject_id": "003",
    "task_id": "FullFovAttentionTask",
    "time": {
      "samples": {
        "AcquisitionNumber": [
          1,
          2,
          3,
          4,
          5,
          6,
          7,
          8,
          9,
          10,
          11,
          12,
          13,
          14,
          15,
          16,
          17,
          18,
          19,
          20,
          21,
          22,
          23,
          24,
          25,
          26,
          27,
          28,
          29,
          30,
          31,
          32,
          33,
          34,
          35,
          36,
          37,
          38,
          39,
          40,
          41,
          42,
          43,
          44,
          45,
          46,
          47,
          48,
          49,
          50,
          51,
          52,
          53,
          54,
          55,
          56,
          57,
          58,
          59,
          60,
          61,
          62,
          63,
          64,
          65,
          66,
          67,
          68,
          69,
          70,
          71,
          72,
          73,
          74,
          75,
          76,
          77,
          78,
          79,
          80,
          81,
          82,
          83,
          84,
          85,
          86,
          87,
          88,
          89,
          90,
          91,
          92,
          93,
          94,
          95,
          96,
          97,
          98,
          99,
          100,
          101,
          102,
          103,
          104,
          105,
          106,
          107,
          108,
          109,
          110,
          111,
          112,
          113,
          114,
          115,
          116,
          117,
          118,
          119,
          120,
          121,
          122,
          123,
          124,
          125,
          126,
          127,
          128,
          129,
          130,
          131,
          132,
          133,
          134,
          135,
          136,
          137,
          138,
          139,
          140,
          141,
          142,
          143,
          144,
          145,
          146,
          147,
          148,
          149,
          150,
          151,
          152,
          153,
          154,
          155,
          156,
          157,
          158,
          159,
          160,
          161,
          162,
          163,
          164
        ],
        "AcquisitionTime": [
          "181159.990000",
          "181204.007500",
          "181206.015000",
          "181208.022500",
          "181210.030000",
          "181212.037500",
          "181214.047500",
          "181216.055000",
          "181218.062500",
          "181220.070000",
          "181222.077500",
          "181224.087500",
          "181226.095000",
          "181228.102500",
          "181230.110000",
          "181232.120000",
          "181234.127500",
          "181236.135000",
          "181238.142500",
          "181240.150000",
          "181242.160000",
          "181244.167500",
          "181246.175000",
          "181248.182500",
          "181250.190000",
          "181252.200000",
          "181254.207500",
          "181256.215000",
          "181258.222500",
          "181300.230000",
          "181302.240000",
          "181304.247500",
          "181306.255000",
          "181308.262500",
          "181310.272500",
          "181312.280000",
          "181314.287500",
          "181316.295000",
          "181318.302500",
          "181320.312500",
          "181322.320000",
          "181324.327500",
          "181326.335000",
          "181328.342500",
          "181330.352500",
          "181332.360000",
          "181334.367500",
          "181336.375000",
          "181338.385000",
          "181340.392500",
          "181342.400000",
          "181344.407500",
          "181346.415000",
          "181348.425000",
          "181350.432500",
          "181352.440000",
          "181354.447500",
          "181356.455000",
          "181358.465000",
          "181400.472500",
          "181402.480000",
          "181404.487500",
          "181406.497500",
          "181408.505000",
          "181410.512500",
          "181412.520000",
          "181414.527500",
          "181416.537500",
          "181418.545000",
          "181420.552500",
          "181422.560000",
          "181424.567500",
          "181426.577500",
          "181428.585000",
          "181430.592500",
          "181432.600000",
          "181434.607500",
          "181436.617500",
          "181438.625000",
          "181440.632500",
          "181442.640000",
          "181444.650000",
          "181446.657500",
          "181448.665000",
          "181450.672500",
          "181452.680000",
          "181454.690000",
          "181456.697500",
          "181458.705000",
          "181500.712500",
          "181502.720000",
          "181504.730000",
          "181506.737500",
          "181508.745000",
          "181510.752500",
          "181512.762500",
          "181514.770000",
          "181516.777500",
          "181518.785000",
          "181520.792500",
          "181522.802500",
          "181524.810000",
          "181526.817500",
          "181528.825000",
          "181530.832500",
          "181532.842500",
          "181534.850000",
          "181536.857500",
          "181538.865000",
          "181540.875000",
          "181542.882500",
          "181544.890000",
          "181546.897500",
          "181548.905000",
          "181550.915000",
          "181552.922500",
          "181554.930000",
          "181556.937500",
          "181558.945000",
          "181600.955000",
          "181602.962500",
          "181604.970000",
          "181606.977500",
          "181608.985000",
          "181610.995000",
          "181613.002500",
          "181615.010000",
          "181617.017500",
          "181619.027500",
          "181621.035000",
          "181623.042500",
          "181625.050000",
          "181627.057500",
          "181629.067500",
          "181631.075000",
          "181633.082500",
          "181635.090000",
          "181637.097500",
          "181639.107500",
          "181641.115000",
          "181643.122500",
          "181645.130000",
          "181647.140000",
          "181649.147500",
          "181651.155000",
          "181653.162500",
          "181655.170000",
          "181657.180000",
          "181659.187500",
          "181701.195000",
          "181703.202500",
          "181705.210000",
          "181707.220000",
          "181709.227500",
          "181711.235000",
          "181713.242500",
          "181715.252500",
          "181717.260000",
          "181719.267500",
          "181721.275000",
          "181723.282500",
          "181725.292500",
          "181727.300000",
          "181729.307500"
        ],
        "ContentTime": [
          "181300.483000",
          "181300.499000",
          "181300.499000",
          "181300.499000",
          "181300.499000",
          "181300.499000",
          "181300.514000",
          "181300.514000",
          "181300.514000",
          "181300.514000",
          "181300.514000",
          "181300.514000",
          "181300.514000",
          "181300.530000",
          "181300.530000",
          "181300.530000",
          "181300.530000",
          "181300.546000",
          "181300.546000",
          "181300.546000",
          "181300.546000",
          "181300.561000",
          "181300.561000",
          "181300.561000",
          "181300.561000",
          "181300.561000",
          "181300.561000",
          "181300.561000",
          "181300.577000",
          "181340.483000",
          "181340.483000",
          "181340.483000",
          "181340.483000",
          "181340.483000",
          "181340.499000",
          "181340.499000",
          "181340.499000",
          "181340.499000",
          "181340.499000",
          "181340.499000",
          "181340.514000",
          "181340.514000",
          "181340.514000",
          "181340.514000",
          "181340.514000",
          "181340.530000",
          "181340.530000",
          "181340.530000",
          "181340.530000",
          "181420.483000",
          "181420.483000",
          "181420.499000",
          "181420.499000",
          "181420.499000",
          "181420.499000",
          "181420.499000",
          "181420.514000",
          "181420.514000",
          "181420.514000",
          "181420.514000",
          "181420.514000",
          "181420.530000",
          "181420.530000",
          "181420.530000",
          "181420.530000",
          "181420.530000",
          "181420.530000",
          "181420.530000",
          "181420.546000",
          "181500.483000",
          "181500.483000",
          "181500.483000",
          "181500.483000",
          "181500.483000",
          "181500.499000",
          "181500.499000",
          "181500.499000",
          "181500.499000",
          "181500.499000",
          "181500.514000",
          "181500.514000",
          "181500.514000",
          "181500.514000",
          "181500.514000",
          "181500.530000",
          "181500.530000",
          "181500.530000",
          "181500.530000",
          "181500.530000",
          "181540.483000",
          "181540.483000",
          "181540.483000",
          "181540.483000",
          "181540.483000",
          "181540.499000",
          "181540.499000",
          "181540.499000",
          "181540.499000",
          "181540.499000",
          "181540.514000",
          "181540.514000",
          "181540.514000",
          "181540.514000",
          "181540.530000",
          "181540.530000",
          "181540.530000",
          "181540.530000",
          "181540.530000",
          "181540.530000",
          "181620.483000",
          "181620.483000",
          "181620.483000",
          "181620.499000",
          "181620.499000",
          "181620.499000",
          "181620.499000",
          "181620.499000",
          "181620.514000",
          "181620.514000",
          "181620.514000",
          "181620.514000",
          "181620.514000",
          "181620.514000",
          "181620.514000",
          "181620.530000",
          "181620.530000",
          "181620.530000",
          "181620.530000",
          "181620.530000",
          "181700.483000",
          "181700.483000",
          "181700.483000",
          "181700.499000",
          "181700.499000",
          "181700.499000",
          "181700.499000",
          "181700.514000",
          "181700.514000",
          "181700.514000",
          "181700.514000",
          "181700.514000",
          "181700.514000",
          "181700.514000",
          "181700.530000",
          "181700.530000",
          "181700.530000",
          "181700.530000",
          "181700.530000",
          "181700.530000",
          "181730.202000",
          "181730.202000",
          "181730.202000",
          "181730.202000",
          "181730.218000",
          "181730.218000",
          "181730.218000",
          "181730.233000",
          "181730.233000",
          "181730.249000",
          "181730.249000",
          "181730.249000",
          "181730.249000",
          "181730.249000",
          "181730.264000"
        ],
        "InstanceCreationTime": [
          "181300.483000",
          "181300.499000",
          "181300.499000",
          "181300.499000",
          "181300.499000",
          "181300.499000",
          "181300.514000",
          "181300.514000",
          "181300.514000",
          "181300.514000",
          "181300.514000",
          "181300.514000",
          "181300.514000",
          "181300.530000",
          "181300.530000",
          "181300.530000",
          "181300.530000",
          "181300.546000",
          "181300.546000",
          "181300.546000",
          "181300.546000",
          "181300.561000",
          "181300.561000",
          "181300.561000",
          "181300.561000",
          "181300.561000",
          "181300.561000",
          "181300.561000",
          "181300.577000",
          "181340.483000",
          "181340.483000",
          "181340.483000",
          "181340.483000",
          "181340.483000",
          "181340.499000",
          "181340.499000",
          "181340.499000",
          "181340.499000",
          "181340.499000",
          "181340.499000",
          "181340.514000",
          "181340.514000",
          "181340.514000",
          "181340.514000",
          "181340.514000",
          "181340.530000",
          "181340.530000",
          "181340.530000",
          "181340.530000",
          "181420.483000",
          "181420.483000",
          "181420.499000",
          "181420.499000",
          "181420.499000",
          "181420.499000",
          "181420.499000",
          "181420.514000",
          "181420.514000",
          "181420.514000",
          "181420.514000",
          "181420.514000",
          "181420.530000",
          "181420.530000",
          "181420.530000",
          "181420.530000",
          "181420.530000",
          "181420.530000",
          "181420.530000",
          "181420.546000",
          "181500.483000",
          "181500.483000",
          "181500.483000",
          "181500.483000",
          "181500.483000",
          "181500.499000",
          "181500.499000",
          "181500.499000",
          "181500.499000",
          "181500.499000",
          "181500.514000",
          "181500.514000",
          "181500.514000",
          "181500.514000",
          "181500.514000",
          "181500.530000",
          "181500.530000",
          "181500.530000",
          "181500.530000",
          "181500.530000",
          "181540.483000",
          "181540.483000",
          "181540.483000",
          "181540.483000",
          "181540.483000",
          "181540.499000",
          "181540.499000",
          "181540.499000",
          "181540.499000",
          "181540.499000",
          "181540.514000",
          "181540.514000",
          "181540.514000",
          "181540.514000",
          "181540.530000",
          "181540.530000",
          "181540.530000",
          "181540.530000",
          "181540.530000",
          "181540.530000",
          "181620.483000",
          "181620.483000",
          "181620.483000",
          "181620.499000",
          "181620.499000",
          "181620.499000",
          "181620.499000",
          "181620.499000",
          "181620.514000",
          "181620.514000",
          "181620.514000",
          "181620.514000",
          "181620.514000",
          "181620.514000",
          "181620.514000",
          "181620.530000",
          "181620.530000",
          "181620.530000",
          "181620.530000",
          "181620.530000",
          "181700.483000",
          "181700.483000",
          "181700.483000",
          "181700.499000",
          "181700.499000",
          "181700.499000",
          "181700.499000",
          "181700.514000",
          "181700.514000",
          "181700.514000",
          "181700.514000",
          "181700.514000",
          "181700.514000",
          "181700.514000",
          "181700.530000",
          "181700.530000",
          "181700.530000",
          "181700.530000",
          "181700.530000",
          "181700.530000",
          "181730.202000",
          "181730.202000",
          "181730.202000",
          "181730.202000",
          "181730.218000",
          "181730.218000",
          "181730.218000",
          "181730.233000",
          "181730.233000",
          "181730.249000",
          "181730.249000",
          "181730.249000",
          "181730.249000",
          "181730.249000",
          "181730.264000"
        ],
        "InstanceNumber": [
          1,
          2,
          3,
          4,
          5,
          6,
          7,
          8,
          9,
          10,
          11,
          12,
          13,
          14,
          15,
          16,
          17,
          18,
          19,
          20,
          21,
          22,
          23,
          24,
          25,
          26,
          27,
          28,
          29,
          30,
          31,
          32,
          33,
          34,
          35,
          36,
          37,
          38,
          39,
          40,
          41,
          42,
          43,
          44,
          45,
          46,
          47,
          48,
          49,
          50,
          51,
          52,
          53,
          54,
          55,
          56,
          57,
          58,
          59,
          60,
          61,
          62,
          63,
          64,
          65,
          66,
          67,
          68,
          69,
          70,
          71,
          72,
          73,
          74,
          75,
          76,
          77,
          78,
          79,
          80,
          81,
          82,
          83,
          84,
          85,
          86,
          87,
          88,
          89,
          90,
          91,
          92,
          93,
          94,
          95,
          96,
          97,
          98,
          99,
          100,
          101,
          102,
          103,
          104,
          105,
          106,
          107,
          108,
          109,
          110,
          111,
          112,
          113,
          114,
          115,
          116,
          117,
          118,
          119,
          120,
          121,
          122,
          123,
          124,
          125,
          126,
          127,
          128,
          129,
          130,
          131,
          132,
          133,
          134,
          135,
          136,
          137,
          138,
          139,
          140,
          141,
          142,
          143,
          144,
          145,
          146,
          147,
          148,
          149,
          150,
          151,
          152,
          153,
          154,
          155,
          156,
          157,
          158,
          159,
          160,
          161,
          162,
          163,
          164
        ],
        "LargestImagePixelValue": [
          3134,
          3121,
          3132,
          3081,
          3077,
          3129,
          3103,
          3090,
          3089,
          3065,
          3076,
          3073,
          3102,
          3119,
          3096,
          3091,
          3102,
          3058,
          3121,
          3121,
          3130,
          3136,
          3115,
          3183,
          3185,
          3164,
          3158,
          3160,
          3123,
          3171,
          3168,
          3154,
          3144,
          3165,
          3184,
          3177,
          3141,
          3162,
          3111,
          3153,
          3168,
          3199,
          3188,
          3142,
          3166,
          3171,
          3229,
          3223,
          3189,
          3244,
          3199,
          3230,
          3225,
          3222,
          3245,
          3232,
          3247,
          3270,
          3236,
          3250,
          3224,
          3250,
          3242,
          3234,
          3228,
          3255,
          3222,
          3242,
          3248,
          3288,
          3292,
          3227,
          3268,
          3252,
          3265,
          3268,
          3252,
          3288,
          3262,
          3280,
          3275,
          3251,
          3293,
          3288,
          3286,
          3280,
          3268,
          3289,
          3250,
          3285,
          3282,
          3285,
          3295,
          3279,
          3285,
          3284,
          3273,
          3286,
          3291,
          3283,
          3261,
          3273,
          3309,
          3296,
          3336,
          3318,
          3338,
          3292,
          3297,
          3347,
          3308,
          3320,
          3316,
          3313,
          3332,
          3330,
          3338,
          3334,
          3316,
          3308,
          3303,
          3315,
          3345,
          3304,
          3343,
          3313,
          3340,
          3336,
          3324,
          3355,
          3311,
          3339,
          3330,
          3333,
          3323,
          3347,
          3334,
          3341,
          3352,
          3328,
          3342,
          3360,
          3320,
          3349,
          3329,
          3367,
          3306,
          3314,
          3325,
          3326,
          3369,
          3352,
          3337,
          3380,
          3343,
          3360,
          3325,
          3341,
          3365,
          3341,
          3359,
          3364,
          3343,
          3331
        ],
        "WindowCenter": [
          723.0,
          723.0,
          723.0,
          723.0,
          723.0,
          723.0,
          724.0,
          724.0,
          724.0,
          725.0,
          725.0,
          725.0,
          725.0,
          724.0,
          724.0,
          725.0,
          726.0,
          726.0,
          726.0,
          724.0,
          725.0,
          725.0,
          725.0,
          725.0,
          725.0,
          725.0,
          724.0,
          723.0,
          724.0,
          724.0,
          724.0,
          723.0,
          724.0,
          724.0,
          724.0,
          725.0,
          725.0,
          725.0,
          725.0,
          726.0,
          727.0,
          726.0,
          723.0,
          723.0,
          724.0,
          725.0,
          724.0,
          725.0,
          725.0,
          724.0,
          723.0,
          723.0,
          723.0,
          723.0,
          722.0,
          722.0,
          723.0,
          723.0,
          723.0,
          723.0,
          722.0,
          723.0,
          723.0,
          724.0,
          724.0,
          724.0,
          724.0,
          725.0,
          725.0,
          725.0,
          726.0,
          727.0,
          727.0,
          727.0,
          725.0,
          725.0,
          725.0,
          725.0,
          724.0,
          724.0,
          725.0,
          725.0,
          724.0,
          723.0,
          723.0,
          724.0,
          724.0,
          724.0,
          724.0,
          724.0,
          725.0,
          724.0,
          724.0,
          724.0,
          724.0,
          723.0,
          724.0,
          724.0,
          724.0,
          723.0,
          725.0,
          725.0,
          725.0,
          724.0,
          724.0,
          725.0,
          726.0,
          725.0,
          723.0,
          723.0,
          723.0,
          723.0,
          722.0,
          723.0,
          723.0,
          723.0,
          722.0,
          722.0,
