{
  "aor": 0.0015740853658536584,
  "aqi": 0.007074746890243902,
  "bids_meta": {
    "AcquisitionMatrixPE": 96,
    "AcquisitionNumber": 1,
    "AcquisitionTime": "18:20:22.832500",
    "BandwidthPerPixelPhaseEncode": 52.083,
    "BaseResolution": 96,
    "BodyPartExamined": "HEAD",
    "ConversionSoftware": "dcm2niix",
    "ConversionSoftwareVersion": "v1.0.20180622 GCC6.3.0",
    "DerivedVendorReportedEchoSpacing": 0.000600004,
    "DeviceSerialNumber": "18926",
    "DwellTime": 2.6e-06,
    "EchoTime": 0.025,
    "EffectiveEchoSpacing": 0.000200001,
    "FlipAngle": 50,
    "ImageOrientationPatientDICOM": [
      1,
      -2.05103e-10,
      0,
      2.05103e-10,
      1,
      0
    ],
    "ImageType": [
      "ORIGINAL",
      "PRIMARY",
      "M",
      "ND",
      "ECHO",
      "00",
      "MOSAIC"
    ],
    "InPlanePhaseEncodingDirectionDICOM": "ROW",
    "InstitutionName": "NIMH",
    "InstitutionalDepartmentName": "Department",
    "MRAcquisitionType": "2D",
    "MagneticFieldStrength": 6.98,
    "Manufacturer": "Siemens",
    "ManufacturersModelName": "Investigational_Device_7T",
    "Modality": "MR",
    "ParallelReductionFactorInPlane": 3,
    "PartialFourier": 1,
    "PatientPosition": "HFS",
    "PercentPhaseFOV": 100,
    "PhaseEncodingDirection": "i",
    "PhaseEncodingSteps": 94,
    "PhaseResolution": 1,
    "PixelBandwidth": 2003,
    "ProcedureStepDescription": "MRI_Procedure_Limited",
    "ProtocolName": "NIH_EPI1.5_2.0iso_TR2_Run07",
    "PulseSequenceDetails": "%CustomerSeq%_inati_nih_epi_1_5",
    "ReceiveCoilName": "32Ch_Head_7T",
    "ReconMatrixPE": 96,
    "RepetitionTime": 2,
    "SAR": 0.0807215,
    "ScanningSequence": "EP",
    "SequenceName": "epfid2d1_96",
    "SequenceVariant": "SK",
    "SeriesDescription": "NIH_EPI1.5_2.0iso_TR2_Run07",
    "SeriesNumber": 11,
    "ShimSetting": [
      -127,
      95,
      1257,
      2238,
      -301,
      356,
      218,
      -344
    ],
    "SliceThickness": 2,
    "SliceTiming": [
      1.005,
      0,
      1.0425,
      0.0375,
      1.0775,
      0.075,
      1.115,
      0.1125,
      1.1525,
      0.15,
      1.19,
      0.1875,
      1.2275,
      0.2225,
      1.265,
      0.26,
      1.3025,
      0.2975,
      1.34,
      0.335,
      1.375,
      0.3725,
      1.4125,
      0.41,
      1.45,
      0.4475,
      1.4875,
      0.485,
      1.525,
      0.52,
      1.5625,
      0.5575,
      1.6,
      0.595,
      1.6375,
      0.6325,
      1.6725,
      0.67,
      1.71,
      0.7075,
      1.7475,
      0.745,
      1.785,
      0.78,
      1.8225,
      0.8175,
      1.86,
      0.855,
      1.8975,
      0.8925,
      1.9325,
      0.93,
      1.97,
      0.9675
    ],
    "SoftwareVersions": "syngo_MR_B17",
    "SpacingBetweenSlices": 2,
    "StationName": "FMRIFD7T",
    "TaskName": "FullFovAttentionTask",
    "TotalReadoutTime": 0.0190001,
    "TxRefAmp": 273,
    "dataset": "ds001555",
    "dcmmeta_affine": [
      [
        -2.0,
        4.1020681296188855e-10,
        0.0,
        96.0
      ],
      [
        4.1020681296188855e-10,
        2.0,
        0.0,
        -69.71084594726562
      ],
      [
        0.0,
        0.0,
        2.0,
        -36.132530212402344
      ],
      [
        0.0,
        0.0,
        0.0,
        1.0
      ]
    ],
    "dcmmeta_reorient_transform": [
      [
        0.0,
        -1.0,
        0.0,
        95.0
      ],
      [
        1.0,
        0.0,
        0.0,
        0.0
      ],
      [
        0.0,
        0.0,
        1.0,
        0.0
      ],
      [
        0.0,
        0.0,
        0.0,
        1.0
      ]
    ],
    "dcmmeta_shape": [
      96,
      96,
      54,
      164
    ],
    "dcmmeta_slice_dim": 2,
    "dcmmeta_version": 0.6,
    "global": {
      "const": {
        "AcquisitionMatrix": [
          0,
          96,
          96,
          0
        ],
        "Allergies": "No Known Allergies",
        "AngioFlag": "N",
        "BitsAllocated": 16,
        "BitsStored": 12,
        "BodyPartExamined": "HEAD",
        "Columns": 768,
        "EchoNumbers": 1,
        "EchoTime": 25.0,
        "EchoTrainLength": 1,
        "FlipAngle": 50.0,
        "HighBit": 11,
        "ImageOrientationPatient": [
          1.0,
          -2.051034e-10,
          0.0,
          2.051034e-10,
          1.0,
          0.0
        ],
        "ImagePositionPatient": [
          -768.00000015752,
          -792.28915580256,
          -36.132530212402
        ],
        "ImageType": [
          "ORIGINAL",
          "PRIMARY",
          "M",
          "ND",
          "ECHO_00",
          "MOSAIC"
        ],
        "ImagedNucleus": "1H",
        "ImagingFrequency": 297.205017,
        "InPlanePhaseEncodingDirection": "ROW",
        "MRAcquisitionType": "2D",
        "MagneticFieldStrength": 6.98,
        "Manufacturer": "SIEMENS",
        "ManufacturerModelName": "Investigational_Device_7T",
        "Modality": "MR",
        "NumberOfAverages": 1.0,
        "NumberOfPhaseEncodingSteps": 94,
        "PercentPhaseFieldOfView": 100.0,
        "PercentSampling": 100.0,
        "PerformedProcedureStepStartTime": "170616.921000",
        "PhotometricInterpretation": "MONOCHROME2",
        "PixelBandwidth": 2003.0,
        "PixelRepresentation": 0,
        "PixelSpacing": [
          2.0,
          2.0
        ],
        "PositionReferenceIndicator": "",
        "ProcedureCodeSequence": [
          {
            "CodeMeaning": "MRI Procedure Limited",
            "CodeValue": "MI01491",
            "CodingSchemeDesignator": "USA Standard",
            "ContextIdentifier": "4000141241"
          }
        ],
        "ProtocolName": "NIH_EPI1.5_2.0iso_TR2_Run07",
        "ReferencedStudySequence": [
          {
            "ReferencedSOPClassUID": "1.2.840.10008.3.1.2.3.1",
            "ReferencedSOPInstanceUID": "1.2.840.113564.9.1.2787814059.53.2.5000107115"
          }
        ],
        "RepetitionTime": 2000.0,
        "RequestedProcedureCodeSequence": [
          {
            "CodeMeaning": "MRI Procedure Limited",
            "CodeValue": "MI01491",
            "CodingSchemeDesignator": "USA Standard",
            "ContextIdentifier": "4000141241"
          }
        ],
        "RequestingService": "NIMH Molecular Imaging Branch",
        "Rows": 768,
        "SAR": 0.08072152853234,
        "SamplesPerPixel": 1,
        "ScanningSequence": "EP",
        "SequenceName": "epfid2d1_96",
        "SequenceVariant": "SK",
        "SeriesDescription": "NIH_EPI1.5_2.0iso_TR2_Run07",
        "SeriesNumber": 11,
        "SliceLocation": -36.132530212402,
        "SliceThickness": 2.0,
        "SmallestImagePixelValue": 0,
        "SoftwareVersions": "syngo MR B17",
        "SpacingBetweenSlices": 2.0,
        "TransmitCoilName": "32Ch_Head_7T",
        "VariableFlipAngleFlag": "N",
        "WindowCenterWidthExplanation": "Algo1",
        "dBdt": 0.0
      },
      "slices": {}
    },
    "modality": "bold",
    "run_id": 8,
    "session_id": "12",
    "subject_id": "003",
    "task_id": "FullFovAttentionTask",
    "time": {
      "samples": {
        "AcquisitionNumber": [
          1,
          2,
          3,
          4,
          5,
          6,
          7,
          8,
          9,
          10,
          11,
          12,
          13,
          14,
          15,
          16,
          17,
          18,
          19,
          20,
          21,
          22,
          23,
          24,
          25,
          26,
          27,
          28,
          29,
          30,
          31,
          32,
          33,
          34,
          35,
          36,
          37,
          38,
          39,
          40,
          41,
          42,
          43,
          44,
          45,
          46,
          47,
          48,
          49,
          50,
          51,
          52,
          53,
          54,
          55,
          56,
          57,
          58,
          59,
          60,
          61,
          62,
          63,
          64,
          65,
          66,
          67,
          68,
          69,
          70,
          71,
          72,
          73,
          74,
          75,
          76,
          77,
          78,
          79,
          80,
          81,
          82,
          83,
          84,
          85,
          86,
          87,
          88,
          89,
          90,
          91,
          92,
          93,
          94,
          95,
          96,
          97,
          98,
          99,
          100,
          101,
          102,
          103,
          104,
          105,
          106,
          107,
          108,
          109,
          110,
          111,
          112,
          113,
          114,
          115,
          116,
          117,
          118,
          119,
          120,
          121,
          122,
          123,
          124,
          125,
          126,
          127,
          128,
          129,
          130,
          131,
          132,
          133,
          134,
          135,
          136,
          137,
          138,
          139,
          140,
          141,
          142,
          143,
          144,
          145,
          146,
          147,
          148,
          149,
          150,
          151,
          152,
          153,
          154,
          155,
          156,
          157,
          158,
          159,
          160,
          161,
          162,
          163,
          164
        ],
        "AcquisitionTime": [
          "182022.832500",
          "182026.847500",
          "182028.855000",
          "182030.865000",
          "182032.872500",
          "182034.880000",
          "182036.887500",
          "182038.895000",
          "182040.905000",
          "182042.912500",
          "182044.920000",
          "182046.927500",
          "182048.935000",
          "182050.945000",
          "182052.952500",
          "182054.960000",
          "182056.967500",
          "182058.977500",
          "182100.985000",
          "182102.992500",
          "182105.000000",
          "182107.007500",
          "182109.017500",
          "182111.025000",
          "182113.032500",
          "182115.040000",
          "182117.047500",
          "182119.057500",
          "182121.065000",
          "182123.072500",
          "182125.080000",
          "182127.090000",
          "182129.097500",
          "182131.105000",
          "182133.112500",
          "182135.120000",
          "182137.130000",
          "182139.137500",
          "182141.145000",
          "182143.152500",
          "182145.160000",
          "182147.170000",
          "182149.177500",
          "182151.185000",
          "182153.192500",
          "182155.200000",
          "182157.210000",
          "182159.217500",
          "182201.225000",
          "182203.232500",
          "182205.242500",
          "182207.250000",
          "182209.257500",
          "182211.265000",
          "182213.272500",
          "182215.282500",
          "182217.290000",
          "182219.297500",
          "182221.305000",
          "182223.312500",
          "182225.322500",
          "182227.330000",
          "182229.337500",
          "182231.345000",
          "182233.355000",
          "182235.362500",
          "182237.370000",
          "182239.377500",
          "182241.385000",
          "182243.395000",
          "182245.402500",
          "182247.410000",
          "182249.417500",
          "182251.425000",
          "182253.435000",
          "182255.442500",
          "182257.450000",
          "182259.457500",
          "182301.467500",
          "182303.475000",
          "182305.482500",
          "182307.490000",
          "182309.497500",
          "182311.507500",
          "182313.515000",
          "182315.522500",
          "182317.530000",
          "182319.537500",
          "182321.547500",
          "182323.555000",
          "182325.562500",
          "182327.570000",
          "182329.577500",
          "182331.587500",
          "182333.595000",
          "182335.602500",
          "182337.610000",
          "182339.620000",
          "182341.627500",
          "182343.635000",
          "182345.642500",
          "182347.650000",
          "182349.660000",
          "182351.667500",
          "182353.675000",
          "182355.682500",
          "182357.690000",
          "182359.700000",
          "182401.707500",
          "182403.715000",
          "182405.722500",
          "182407.732500",
          "182409.740000",
          "182411.747500",
          "182413.755000",
          "182415.762500",
          "182417.772500",
          "182419.780000",
          "182421.787500",
          "182423.795000",
          "182425.802500",
          "182427.812500",
          "182429.820000",
          "182431.827500",
          "182433.835000",
          "182435.845000",
          "182437.852500",
          "182439.860000",
          "182441.867500",
          "182443.875000",
          "182445.885000",
          "182447.892500",
          "182449.900000",
          "182451.907500",
          "182453.915000",
          "182455.925000",
          "182457.932500",
          "182459.940000",
          "182501.947500",
          "182503.957500",
          "182505.965000",
          "182507.972500",
          "182509.980000",
          "182511.987500",
          "182513.997500",
          "182516.005000",
          "182518.012500",
          "182520.020000",
          "182522.027500",
          "182524.037500",
          "182526.045000",
          "182528.052500",
          "182530.060000",
          "182532.067500",
          "182534.077500",
          "182536.085000",
          "182538.092500",
          "182540.100000",
          "182542.110000",
          "182544.117500",
          "182546.125000",
          "182548.132500",
          "182550.140000",
          "182552.150000"
        ],
        "ContentTime": [
          "182107.405000",
          "182107.421000",
          "182107.421000",
          "182107.421000",
          "182107.421000",
          "182107.436000",
          "182107.436000",
          "182107.436000",
          "182107.452000",
          "182107.452000",
          "182107.452000",
          "182107.452000",
          "182107.452000",
          "182107.452000",
          "182107.452000",
          "182107.468000",
          "182107.468000",
          "182107.468000",
          "182107.468000",
          "182107.468000",
          "182107.468000",
          "182147.405000",
          "182147.405000",
          "182147.405000",
          "182147.405000",
          "182147.405000",
          "182147.421000",
          "182147.421000",
          "182147.421000",
          "182147.421000",
          "182147.421000",
          "182147.436000",
          "182147.436000",
          "182147.436000",
          "182147.436000",
          "182147.436000",
          "182147.436000",
          "182147.452000",
          "182147.452000",
          "182147.452000",
          "182147.452000",
          "182227.405000",
          "182227.405000",
          "182227.405000",
          "182227.405000",
          "182227.405000",
          "182227.421000",
          "182227.421000",
          "182227.421000",
          "182227.421000",
          "182227.436000",
          "182227.436000",
          "182227.436000",
          "182227.436000",
          "182227.436000",
          "182227.436000",
          "182227.452000",
          "182227.452000",
          "182227.452000",
          "182227.452000",
          "182227.452000",
          "182307.405000",
          "182307.405000",
          "182307.405000",
          "182307.405000",
          "182307.405000",
          "182307.421000",
          "182307.421000",
          "182307.421000",
          "182307.436000",
          "182307.436000",
          "182307.436000",
          "182307.436000",
          "182307.436000",
          "182307.436000",
          "182307.452000",
          "182307.452000",
          "182307.452000",
          "182307.452000",
          "182307.468000",
          "182307.468000",
          "182347.405000",
          "182347.405000",
          "182347.405000",
          "182347.405000",
          "182347.405000",
          "182347.421000",
          "182347.421000",
          "182347.421000",
          "182347.436000",
          "182347.436000",
          "182347.436000",
          "182347.436000",
          "182347.436000",
          "182347.436000",
          "182347.452000",
          "182347.452000",
          "182347.452000",
          "182347.452000",
          "182347.452000",
          "182347.452000",
          "182427.405000",
          "182427.405000",
          "182427.405000",
          "182427.405000",
          "182427.405000",
          "182427.421000",
          "182427.421000",
          "182427.421000",
          "182427.421000",
          "182427.421000",
          "182427.421000",
          "182427.421000",
          "182427.436000",
          "182427.436000",
          "182427.436000",
          "182427.436000",
          "182427.436000",
          "182427.436000",
          "182427.452000",
          "182427.452000",
          "182507.405000",
          "182507.405000",
          "182507.405000",
          "182507.405000",
          "182507.405000",
          "182507.421000",
          "182507.421000",
          "182507.421000",
          "182507.421000",
          "182507.421000",
          "182507.421000",
          "182507.421000",
          "182507.436000",
          "182507.436000",
          "182507.436000",
          "182507.436000",
          "182507.436000",
          "182507.436000",
          "182507.452000",
          "182507.452000",
          "182547.405000",
          "182547.405000",
          "182547.405000",
          "182547.405000",
          "182547.405000",
          "182547.421000",
          "182547.421000",
          "182547.421000",
          "182547.421000",
          "182547.421000",
          "182547.436000",
          "182547.436000",
          "182547.436000",
          "182547.452000",
          "182547.452000",
          "182547.452000",
          "182547.452000",
          "182547.452000",
          "182547.468000",
          "182547.468000",
          "182552.827000",
          "182552.827000",
          "182552.827000"
        ],
        "InstanceCreationTime": [
          "182107.405000",
          "182107.421000",
          "182107.421000",
          "182107.421000",
          "182107.421000",
          "182107.436000",
          "182107.436000",
          "182107.436000",
          "182107.452000",
          "182107.452000",
          "182107.452000",
          "182107.452000",
          "182107.452000",
          "182107.452000",
          "182107.452000",
          "182107.468000",
          "182107.468000",
          "182107.468000",
          "182107.468000",
          "182107.468000",
          "182107.468000",
          "182147.405000",
          "182147.405000",
          "182147.405000",
          "182147.405000",
          "182147.405000",
          "182147.421000",
          "182147.421000",
          "182147.421000",
          "182147.421000",
          "182147.421000",
          "182147.436000",
          "182147.436000",
          "182147.436000",
          "182147.436000",
          "182147.436000",
          "182147.436000",
          "182147.452000",
          "182147.452000",
          "182147.452000",
          "182147.452000",
          "182227.405000",
          "182227.405000",
          "182227.405000",
          "182227.405000",
          "182227.405000",
          "182227.421000",
          "182227.421000",
          "182227.421000",
          "182227.421000",
          "182227.436000",
          "182227.436000",
          "182227.436000",
          "182227.436000",
          "182227.436000",
          "182227.436000",
          "182227.452000",
          "182227.452000",
          "182227.452000",
          "182227.452000",
          "182227.452000",
          "182307.405000",
          "182307.405000",
          "182307.405000",
          "182307.405000",
          "182307.405000",
          "182307.421000",
          "182307.421000",
          "182307.421000",
          "182307.436000",
          "182307.436000",
          "182307.436000",
          "182307.436000",
          "182307.436000",
          "182307.436000",
          "182307.452000",
          "182307.452000",
          "182307.452000",
          "182307.452000",
          "182307.468000",
          "182307.468000",
          "182347.405000",
          "182347.405000",
          "182347.405000",
          "182347.405000",
          "182347.405000",
          "182347.421000",
          "182347.421000",
          "182347.421000",
          "182347.436000",
          "182347.436000",
          "182347.436000",
          "182347.436000",
          "182347.436000",
          "182347.436000",
          "182347.452000",
          "182347.452000",
          "182347.452000",
          "182347.452000",
          "182347.452000",
          "182347.452000",
          "182427.405000",
          "182427.405000",
          "182427.405000",
          "182427.405000",
          "182427.405000",
          "182427.421000",
          "182427.421000",
          "182427.421000",
          "182427.421000",
          "182427.421000",
          "182427.421000",
          "182427.421000",
          "182427.436000",
          "182427.436000",
          "182427.436000",
          "182427.436000",
          "182427.436000",
          "182427.436000",
          "182427.452000",
          "182427.452000",
          "182507.405000",
          "182507.405000",
          "182507.405000",
          "182507.405000",
          "182507.405000",
          "182507.421000",
          "182507.421000",
          "182507.421000",
          "182507.421000",
          "182507.421000",
          "182507.421000",
          "182507.421000",
          "182507.436000",
          "182507.436000",
          "182507.436000",
          "182507.436000",
          "182507.436000",
          "182507.436000",
          "182507.452000",
          "182507.452000",
          "182547.405000",
          "182547.405000",
          "182547.405000",
          "182547.405000",
          "182547.405000",
          "182547.421000",
          "182547.421000",
          "182547.421000",
          "182547.421000",
          "182547.421000",
          "182547.436000",
          "182547.436000",
          "182547.436000",
          "182547.452000",
          "182547.452000",
          "182547.452000",
          "182547.452000",
          "182547.452000",
          "182547.468000",
          "182547.468000",
          "182552.827000",
          "182552.827000",
          "182552.827000"
        ],
        "InstanceNumber": [
          1,
          2,
          3,
          4,
          5,
          6,
          7,
          8,
          9,
          10,
          11,
          12,
          13,
          14,
          15,
          16,
          17,
          18,
          19,
          20,
          21,
          22,
          23,
          24,
          25,
          26,
          27,
          28,
          29,
          30,
          31,
          32,
          33,
          34,
          35,
          36,
          37,
          38,
          39,
          40,
          41,
          42,
          43,
          44,
          45,
          46,
          47,
          48,
          49,
          50,
          51,
          52,
          53,
          54,
          55,
          56,
          57,
          58,
          59,
          60,
          61,
          62,
          63,
          64,
          65,
          66,
          67,
          68,
          69,
          70,
          71,
          72,
          73,
          74,
          75,
          76,
          77,
          78,
          79,
          80,
          81,
          82,
          83,
          84,
          85,
          86,
          87,
          88,
          89,
          90,
          91,
          92,
          93,
          94,
          95,
          96,
          97,
          98,
          99,
          100,
          101,
          102,
          103,
          104,
          105,
          106,
          107,
          108,
          109,
          110,
          111,
          112,
          113,
          114,
          115,
          116,
          117,
          118,
          119,
          120,
          121,
          122,
          123,
          124,
          125,
          126,
          127,
          128,
          129,
          130,
          131,
          132,
          133,
          134,
          135,
          136,
          137,
          138,
          139,
          140,
          141,
          142,
          143,
          144,
          145,
          146,
          147,
          148,
          149,
          150,
          151,
          152,
          153,
          154,
          155,
          156,
          157,
          158,
          159,
          160,
          161,
          162,
          163,
          164
        ],
        "LargestImagePixelValue": [
          3130,
          3159,
          3174,
          3129,
          3214,
          3177,
          3210,
          3279,
          3245,
          3150,
          3150,
          3217,
          3203,
          3136,
          3157,
          3144,
          3175,
          3182,
          3124,
          3146,
          3158,
          3122,
          3139,
          3128,
          3118,
          3148,
          3117,
          3122,
          3117,
          3083,
          3121,
          3144,
          3077,
          3104,
          3120,
          3108,
          3135,
          3105,
          3083,
          3137,
          3085,
          3143,
          3099,
          3123,
          3140,
          3112,
          3143,
          3109,
          3126,
          3119,
          3104,
          3191,
          3108,
          3160,
          3093,
          3130,
          3131,
          3127,
          3149,
          3082,
          3125,
          3114,
          3111,
          3130,
          3101,
          3121,
          3102,
          3138,
          3083,
          3105,
          3111,
          3113,
          3133,
          3121,
          3129,
          3136,
          3145,
          3139,
          3154,
          3140,
          3173,
          3131,
          3155,
          3134,
          3153,
          3142,
          3186,
          3149,
          3177,
          3179,
          3153,
          3183,
          3149,
          3153,
          3169,
          3170,
          3126,
          3159,
          3148,
          3156,
          3158,
          3173,
          3129,
          3147,
          3173,
          3170,
          3154,
          3185,
          3164,
          3154,
          3202,
          3190,
          3189,
          3177,
          3161,
          3188,
          3187,
          3173,
          3218,
          3181,
          3199,
          3182,
          3192,
          3226,
          3189,
          3212,
          3199,
          3161,
          3198,
          3197,
          3163,
          3221,
          3222,
          3234,
          3233,
          3253,
          3252,
          3257,
          3256,
          3259,
          3249,
          3247,
          3252,
          3249,
          3254,
          3263,
          3257,
          3243,
          3267,
          3289,
          3244,
          3268,
          3279,
          3282,
          3245,
          3279,
          3299,
          3269,
          3297,
          3267,
          3280,
          3308,
          3307,
          3290
        ],
        "WindowCenter": [
          727.0,
          727.0,
          727.0,
          727.0,
          726.0,
          725.0,
          727.0,
          728.0,
          728.0,
          729.0,
          728.0,
          727.0,
          726.0,
          726.0,
          727.0,
          726.0,
          725.0,
          725.0,
          724.0,
          724.0,
          723.0,
          722.0,
          723.0,
          724.0,
          724.0,
          724.0,
          723.0,
          723.0,
          723.0,
          723.0,
          723.0,
          723.0,
          722.0,
          723.0,
          724.0,
          724.0,
          724.0,
          726.0,
          726.0,
          725.0,
          726.0,
          728.0,
          727.0,
          726.0,
          725.0,
          725.0,
          725.0,
          724.0,
          724.0,
          725.0,
          725.0,
          724.0,
          722.0,
          722.0,
          723.0,
          723.0,
          723.0,
          723.0,
          723.0,
          723.0,
          723.0,
          723.0,
          724.0,
          724.0,
          724.0,
          724.0,
          724.0,
          724.0,
          725.0,
          725.0,
          725.0,
          725.0,
          725.0,
          725.0,
          725.0,
          725.0,
          725.0,
          725.0,
          723.0,
          723.0,
          724.0,
          724.0,
          723.0,
          723.0,
          725.0,
          725.0,
          722.0,
          722.0,
          723.0,
          724.0,
          725.0,
          725.0,
          725.0,
          724.0,
          724.0,
          723.0,
          722.0,
          723.0,
          724.0,
          724.0,
          723.0,
          723.0,
          723.0,
          723.0,
          724.0,
          724.0,
          723.0,
          722.0,
          722.0,
          722.0,
          723.0,
          722.0,
          721.0,
          721.0,
          722.0,
          723.0,
          723.0,
          722.0,
