{
  "aor": 0.002787926829268293,
  "aqi": 0.008749852378048779,
  "bids_meta": {
    "AcquisitionMatrixPE": 96,
    "AcquisitionNumber": 1,
    "AcquisitionTime": "11:38:20.912500",
    "BandwidthPerPixelPhaseEncode": 52.083,
    "BaseResolution": 96,
    "BodyPartExamined": "HEAD",
    "ConversionSoftware": "dcm2niix",
    "ConversionSoftwareVersion": "v1.0.20180622 GCC6.3.0",
    "DerivedVendorReportedEchoSpacing": 0.000600004,
    "DeviceSerialNumber": "18926",
    "DwellTime": 2.6e-06,
    "EchoTime": 0.025,
    "EffectiveEchoSpacing": 0.000200001,
    "FlipAngle": 50,
    "ImageOrientationPatientDICOM": [
      0.999992,
      0.00067012,
      0.00404905,
      2.11009e-10,
      0.98658,
      -0.16328
    ],
    "ImageType": [
      "ORIGINAL",
      "PRIMARY",
      "M",
      "ND",
      "ECHO",
      "00",
      "MOSAIC"
    ],
    "InPlanePhaseEncodingDirectionDICOM": "ROW",
    "InstitutionName": "NIMH",
    "InstitutionalDepartmentName": "Department",
    "MRAcquisitionType": "2D",
    "MagneticFieldStrength": 6.98,
    "Manufacturer": "Siemens",
    "ManufacturersModelName": "Investigational_Device_7T",
    "Modality": "MR",
    "ParallelReductionFactorInPlane": 3,
    "PartialFourier": 1,
    "PatientPosition": "HFS",
    "PercentPhaseFOV": 100,
    "PhaseEncodingDirection": "i",
    "PhaseEncodingSteps": 94,
    "PhaseResolution": 1,
    "PixelBandwidth": 2003,
    "ProcedureStepDescription": "MRI_Procedure_Limited",
    "ProtocolName": "NIH_EPI_2.0iso_TR2_Run11",
    "PulseSequenceDetails": "%CustomerSeq%_inati_nih_epi",
    "ReceiveCoilName": "32Ch_Head_7T",
    "ReconMatrixPE": 96,
    "RepetitionTime": 2,
    "SAR": 0.0855205,
    "ScanningSequence": "EP",
    "SequenceName": "epfid2d1_96",
    "SequenceVariant": "SK",
    "SeriesDescription": "NIH_EPI_2.0iso_TR2_Run11",
    "SeriesNumber": 15,
    "ShimSetting": [
      -100,
      166,
      1204,
      2784,
      -173,
      729,
      151,
      -375
    ],
    "SliceThickness": 2,
    "SliceTiming": [
      1.0025,
      0,
      1.04,
      0.0375,
      1.0775,
      0.075,
      1.115,
      0.11,
      1.1525,
      0.1475,
      1.19,
      0.185,
      1.2275,
      0.2225,
      1.2625,
      0.26,
      1.3,
      0.2975,
      1.3375,
      0.335,
      1.375,
      0.3725,
      1.4125,
      0.4075,
      1.45,
      0.445,
      1.4875,
      0.4825,
      1.525,
      0.52,
      1.56,
      0.5575,
      1.5975,
      0.595,
      1.635,
      0.6325,
      1.6725,
      0.6675,
      1.71,
      0.705,
      1.7475,
      0.7425,
      1.785,
      0.78,
      1.8225,
      0.8175,
      1.8575,
      0.855,
      1.895,
      0.8925,
      1.9325,
      0.93,
      1.97,
      0.965
    ],
    "SoftwareVersions": "syngo_MR_B17",
    "SpacingBetweenSlices": 2,
    "StationName": "FMRIFD7T",
    "TaskName": "FullFovAttentionTask",
    "TotalReadoutTime": 0.0190001,
    "TxRefAmp": 270,
    "dataset": "ds001555",
    "dcmmeta_affine": [
      [
        -1.9999831914901733,
        4.2201880878778297e-10,
        0.008208253420889378,
        95.76705169677734
      ],
      [
        -0.0013402394251897931,
        1.973159670829773,
        -0.32655632495880127,
        -63.118167877197266
      ],
      [
        0.008098097518086433,
        0.32655906677246094,
        1.9731431007385254,
        -51.01611328125
      ],
      [
        0.0,
        0.0,
        0.0,
        1.0
      ]
    ],
    "dcmmeta_reorient_transform": [
      [
        0.0,
        -1.0,
        0.0,
        95.0
      ],
      [
        1.0,
        0.0,
        0.0,
        0.0
      ],
      [
        0.0,
        0.0,
        1.0,
        0.0
      ],
      [
        0.0,
        0.0,
        0.0,
        1.0
      ]
    ],
    "dcmmeta_shape": [
      96,
      96,
      54,
      164
    ],
    "dcmmeta_slice_dim": 2,
    "dcmmeta_version": 0.6,
    "global": {
      "const": {
        "AcquisitionMatrix": [
          0,
          96,
          96,
          0
        ],
        "Allergies": "No Known Allergies",
        "AngioFlag": "N",
        "BitsAllocated": 16,
        "BitsStored": 12,
        "BodyPartExamined": "HEAD",
        "Columns": 768,
        "EchoNumbers": 1,
        "EchoTime": 25.0,
        "EchoTrainLength": 1,
        "FlipAngle": 50.0,
        "HighBit": 11,
        "ImageOrientationPatient": [
          0.99999157803662,
          0.00067011969073,
          0.00404904870684,
          2.110094e-10,
          0.98657984636313,
          -0.1632795356133
        ],
        "ImagePositionPatient": [
          -767.761392775,
          -787.76398131462,
          87.009884915845
        ],
        "ImageType": [
          "ORIGINAL",
          "PRIMARY",
          "M",
          "ND",
          "ECHO_00",
          "MOSAIC"
        ],
        "ImagedNucleus": "1H",
        "ImagingFrequency": 297.20521,
        "InPlanePhaseEncodingDirection": "ROW",
        "LargestImagePixelValue": 4095,
        "MRAcquisitionType": "2D",
        "MagneticFieldStrength": 6.98,
        "Manufacturer": "SIEMENS",
        "ManufacturerModelName": "Investigational_Device_7T",
        "Modality": "MR",
        "NumberOfAverages": 1.0,
        "NumberOfPhaseEncodingSteps": 94,
        "PercentPhaseFieldOfView": 100.0,
        "PercentSampling": 100.0,
        "PerformedProcedureStepStartTime": "100542.421000",
        "PhotometricInterpretation": "MONOCHROME2",
        "PixelBandwidth": 2003.0,
        "PixelRepresentation": 0,
        "PixelSpacing": [
          2.0,
          2.0
        ],
        "PositionReferenceIndicator": "",
        "ProcedureCodeSequence": [
          {
            "CodeMeaning": "MRI Procedure Limited",
            "CodeValue": "MI01491",
            "CodingSchemeDesignator": "USA Standard",
            "ContextIdentifier": "4000109590"
          }
        ],
        "ProtocolName": "NIH_EPI_2.0iso_TR2_Run11",
        "ReferencedStudySequence": [
          {
            "ReferencedSOPClassUID": "1.2.840.10008.3.1.2.3.1",
            "ReferencedSOPInstanceUID": "1.2.840.113564.9.1.2723958737.61.2.5000075354"
          }
        ],
        "RepetitionTime": 2000.0,
        "RequestedProcedureCodeSequence": [
          {
            "CodeMeaning": "MRI Procedure Limited",
            "CodeValue": "MI01491",
            "CodingSchemeDesignator": "USA Standard",
            "ContextIdentifier": "4000109590"
          }
        ],
        "RequestingService": "MHMI",
        "Rows": 768,
        "SAR": 0.08552052865436,
        "SamplesPerPixel": 1,
        "ScanningSequence": "EP",
        "SequenceName": "epfid2d1_96",
        "SequenceVariant": "SK",
        "SeriesDescription": "NIH_EPI_2.0iso_TR2_Run11",
        "SeriesNumber": 15,
        "SliceLocation": -39.632187810606,
        "SliceThickness": 2.0,
        "SmallestImagePixelValue": 0,
        "SoftwareVersions": "syngo MR B17",
        "SpacingBetweenSlices": 2.0000000154846,
        "TransmitCoilName": "32Ch_Head_7T",
        "VariableFlipAngleFlag": "N",
        "WindowCenterWidthExplanation": "Algo1",
        "dBdt": 0.0
      },
      "slices": {}
    },
    "modality": "bold",
    "run_id": 12,
    "session_id": "01",
    "subject_id": "003",
    "task_id": "FullFovAttentionTask",
    "time": {
      "samples": {
        "AcquisitionNumber": [
          1,
          2,
          3,
          4,
          5,
          6,
          7,
          8,
          9,
          10,
          11,
          12,
          13,
          14,
          15,
          16,
          17,
          18,
          19,
          20,
          21,
          22,
          23,
          24,
          25,
          26,
          27,
          28,
          29,
          30,
          31,
          32,
          33,
          34,
          35,
          36,
          37,
          38,
          39,
          40,
          41,
          42,
          43,
          44,
          45,
          46,
          47,
          48,
          49,
          50,
          51,
          52,
          53,
          54,
          55,
          56,
          57,
          58,
          59,
          60,
          61,
          62,
          63,
          64,
          65,
          66,
          67,
          68,
          69,
          70,
          71,
          72,
          73,
          74,
          75,
          76,
          77,
          78,
          79,
          80,
          81,
          82,
          83,
          84,
          85,
          86,
          87,
          88,
          89,
          90,
          91,
          92,
          93,
          94,
          95,
          96,
          97,
          98,
          99,
          100,
          101,
          102,
          103,
          104,
          105,
          106,
          107,
          108,
          109,
          110,
          111,
          112,
          113,
          114,
          115,
          116,
          117,
          118,
          119,
          120,
          121,
          122,
          123,
          124,
          125,
          126,
          127,
          128,
          129,
          130,
          131,
          132,
          133,
          134,
          135,
          136,
          137,
          138,
          139,
          140,
          141,
          142,
          143,
          144,
          145,
          146,
          147,
          148,
          149,
          150,
          151,
          152,
          153,
          154,
          155,
          156,
          157,
          158,
          159,
          160,
          161,
          162,
          163,
          164
        ],
        "AcquisitionTime": [
          "113820.912500",
          "113824.930000",
          "113826.937500",
          "113828.945000",
          "113830.952500",
          "113832.962500",
          "113834.970000",
          "113836.977500",
          "113838.985000",
          "113840.992500",
          "113843.002500",
          "113845.010000",
          "113847.017500",
          "113849.025000",
          "113851.035000",
          "113853.042500",
          "113855.050000",
          "113857.057500",
          "113859.065000",
          "113901.075000",
          "113903.082500",
          "113905.090000",
          "113907.097500",
          "113909.105000",
          "113911.115000",
          "113913.122500",
          "113915.130000",
          "113917.137500",
          "113919.147500",
          "113921.155000",
          "113923.162500",
          "113925.170000",
          "113927.177500",
          "113929.187500",
          "113931.195000",
          "113933.202500",
          "113935.210000",
          "113937.217500",
          "113939.227500",
          "113941.235000",
          "113943.242500",
          "113945.250000",
          "113947.257500",
          "113949.267500",
          "113951.275000",
          "113953.282500",
          "113955.290000",
          "113957.300000",
          "113959.307500",
          "114001.315000",
          "114003.322500",
          "114005.330000",
          "114007.340000",
          "114009.347500",
          "114011.355000",
          "114013.362500",
          "114015.370000",
          "114017.380000",
          "114019.387500",
          "114021.395000",
          "114023.402500",
          "114025.412500",
          "114027.420000",
          "114029.427500",
          "114031.435000",
          "114033.442500",
          "114035.452500",
          "114037.460000",
          "114039.467500",
          "114041.475000",
          "114043.482500",
          "114045.492500",
          "114047.500000",
          "114049.507500",
          "114051.515000",
          "114053.525000",
          "114055.532500",
          "114057.540000",
          "114059.547500",
          "114101.555000",
          "114103.565000",
          "114105.572500",
          "114107.580000",
          "114109.587500",
          "114111.595000",
          "114113.605000",
          "114115.612500",
          "114117.620000",
          "114119.627500",
          "114121.635000",
          "114123.645000",
          "114125.652500",
          "114127.660000",
          "114129.667500",
          "114131.677500",
          "114133.685000",
          "114135.692500",
          "114137.700000",
          "114139.707500",
          "114141.717500",
          "114143.725000",
          "114145.732500",
          "114147.740000",
          "114149.747500",
          "114151.757500",
          "114153.765000",
          "114155.772500",
          "114157.780000",
          "114159.790000",
          "114201.797500",
          "114203.805000",
          "114205.812500",
          "114207.820000",
          "114209.830000",
          "114211.837500",
          "114213.845000",
          "114215.852500",
          "114217.860000",
          "114219.870000",
          "114221.877500",
          "114223.885000",
          "114225.892500",
          "114227.902500",
          "114229.910000",
          "114231.917500",
          "114233.925000",
          "114235.932500",
          "114237.942500",
          "114239.950000",
          "114241.957500",
          "114243.965000",
          "114245.972500",
          "114247.982500",
          "114249.990000",
          "114251.997500",
          "114254.005000",
          "114256.012500",
          "114258.022500",
          "114300.030000",
          "114302.037500",
          "114304.045000",
          "114306.055000",
          "114308.062500",
          "114310.070000",
          "114312.077500",
          "114314.085000",
          "114316.095000",
          "114318.102500",
          "114320.110000",
          "114322.117500",
          "114324.125000",
          "114326.135000",
          "114328.142500",
          "114330.150000",
          "114332.157500",
          "114334.167500",
          "114336.175000",
          "114338.182500",
          "114340.190000",
          "114342.197500",
          "114344.207500",
          "114346.215000",
          "114348.222500",
          "114350.230000"
        ],
        "ContentTime": [
          "113909.437000",
          "113909.453000",
          "113909.453000",
          "113909.453000",
          "113909.453000",
          "113909.453000",
          "113909.468000",
          "113909.468000",
          "113909.468000",
          "113909.468000",
          "113909.468000",
          "113909.468000",
          "113909.484000",
          "113909.484000",
          "113909.484000",
          "113909.484000",
          "113909.484000",
          "113909.484000",
          "113909.484000",
          "113909.500000",
          "113909.500000",
          "113909.500000",
          "113909.515000",
          "113949.437000",
          "113949.437000",
          "113949.437000",
          "113949.437000",
          "113949.437000",
          "113949.453000",
          "113949.453000",
          "113949.453000",
          "113949.453000",
          "113949.453000",
          "113949.468000",
          "113949.468000",
          "113949.468000",
          "113949.468000",
          "113949.484000",
          "113949.484000",
          "113949.484000",
          "113949.484000",
          "113949.484000",
          "113949.484000",
          "114029.437000",
          "114029.437000",
          "114029.437000",
          "114029.437000",
          "114029.437000",
          "114029.453000",
          "114029.468000",
          "114029.468000",
          "114029.468000",
          "114029.468000",
          "114029.468000",
          "114029.468000",
          "114029.484000",
          "114029.484000",
          "114029.484000",
          "114029.484000",
          "114029.484000",
          "114029.484000",
          "114029.484000",
          "114029.500000",
          "114109.437000",
          "114109.437000",
          "114109.437000",
          "114109.453000",
          "114109.453000",
          "114109.453000",
          "114109.453000",
          "114109.453000",
          "114109.453000",
          "114109.468000",
          "114109.468000",
          "114109.468000",
          "114109.468000",
          "114109.468000",
          "114109.468000",
          "114109.468000",
          "114109.484000",
          "114109.484000",
          "114109.484000",
          "114109.484000",
          "114149.437000",
          "114149.437000",
          "114149.453000",
          "114149.453000",
          "114149.453000",
          "114149.468000",
          "114149.468000",
          "114149.468000",
          "114149.468000",
          "114149.468000",
          "114149.468000",
          "114149.484000",
          "114149.484000",
          "114149.500000",
          "114149.500000",
          "114149.500000",
          "114149.500000",
          "114149.500000",
          "114149.500000",
          "114149.500000",
          "114229.437000",
          "114229.437000",
          "114229.437000",
          "114229.437000",
          "114229.437000",
          "114229.453000",
          "114229.453000",
          "114229.453000",
          "114229.453000",
          "114229.453000",
          "114229.453000",
          "114229.468000",
          "114229.468000",
          "114229.468000",
          "114229.468000",
          "114229.484000",
          "114229.484000",
          "114229.484000",
          "114229.500000",
          "114229.500000",
          "114309.437000",
          "114309.437000",
          "114309.437000",
          "114309.437000",
          "114309.437000",
          "114309.453000",
          "114309.453000",
          "114309.453000",
          "114309.453000",
          "114309.453000",
          "114309.453000",
          "114309.468000",
          "114309.468000",
          "114309.468000",
          "114309.468000",
          "114309.468000",
          "114309.468000",
          "114309.468000",
          "114309.484000",
          "114309.484000",
          "114349.437000",
          "114349.468000",
          "114349.468000",
          "114349.468000",
          "114349.468000",
          "114349.468000",
          "114349.484000",
          "114349.484000",
          "114349.484000",
          "114349.484000",
          "114349.484000",
          "114349.484000",
          "114349.500000",
          "114349.500000",
          "114349.500000",
          "114349.500000",
          "114349.500000",
          "114349.500000",
          "114349.500000",
          "114349.515000",
          "114351.203000"
        ],
        "InstanceCreationTime": [
          "113909.437000",
          "113909.453000",
          "113909.453000",
          "113909.453000",
          "113909.453000",
          "113909.453000",
          "113909.468000",
          "113909.468000",
          "113909.468000",
          "113909.468000",
          "113909.468000",
          "113909.468000",
          "113909.484000",
          "113909.484000",
          "113909.484000",
          "113909.484000",
          "113909.484000",
          "113909.484000",
          "113909.484000",
          "113909.500000",
          "113909.500000",
          "113909.500000",
          "113909.515000",
          "113949.437000",
          "113949.437000",
          "113949.437000",
          "113949.437000",
          "113949.437000",
          "113949.453000",
          "113949.453000",
          "113949.453000",
          "113949.453000",
          "113949.453000",
          "113949.468000",
          "113949.468000",
          "113949.468000",
          "113949.468000",
          "113949.484000",
          "113949.484000",
          "113949.484000",
          "113949.484000",
          "113949.484000",
          "113949.484000",
          "114029.437000",
          "114029.437000",
          "114029.437000",
          "114029.437000",
          "114029.437000",
          "114029.453000",
          "114029.468000",
          "114029.468000",
          "114029.468000",
          "114029.468000",
          "114029.468000",
          "114029.468000",
          "114029.484000",
          "114029.484000",
          "114029.484000",
          "114029.484000",
          "114029.484000",
          "114029.484000",
          "114029.484000",
          "114029.500000",
          "114109.437000",
          "114109.437000",
          "114109.437000",
          "114109.453000",
          "114109.453000",
          "114109.453000",
          "114109.453000",
          "114109.453000",
          "114109.453000",
          "114109.468000",
          "114109.468000",
          "114109.468000",
          "114109.468000",
          "114109.468000",
          "114109.468000",
          "114109.468000",
          "114109.484000",
          "114109.484000",
          "114109.484000",
          "114109.484000",
          "114149.437000",
          "114149.437000",
          "114149.453000",
          "114149.453000",
          "114149.453000",
          "114149.468000",
          "114149.468000",
          "114149.468000",
          "114149.468000",
          "114149.468000",
          "114149.468000",
          "114149.484000",
          "114149.484000",
          "114149.500000",
          "114149.500000",
          "114149.500000",
          "114149.500000",
          "114149.500000",
          "114149.500000",
          "114149.500000",
          "114229.437000",
          "114229.437000",
          "114229.437000",
          "114229.437000",
          "114229.437000",
          "114229.453000",
          "114229.453000",
          "114229.453000",
          "114229.453000",
          "114229.453000",
          "114229.453000",
          "114229.468000",
          "114229.468000",
          "114229.468000",
          "114229.468000",
          "114229.484000",
          "114229.484000",
          "114229.484000",
          "114229.500000",
          "114229.500000",
          "114309.437000",
          "114309.437000",
          "114309.437000",
          "114309.437000",
          "114309.437000",
          "114309.453000",
          "114309.453000",
          "114309.453000",
          "114309.453000",
          "114309.453000",
          "114309.453000",
          "114309.468000",
          "114309.468000",
          "114309.468000",
          "114309.468000",
          "114309.468000",
          "114309.468000",
          "114309.468000",
          "114309.484000",
          "114309.484000",
          "114349.437000",
          "114349.468000",
          "114349.468000",
          "114349.468000",
          "114349.468000",
          "114349.468000",
          "114349.484000",
          "114349.484000",
          "114349.484000",
          "114349.484000",
          "114349.484000",
          "114349.484000",
          "114349.500000",
          "114349.500000",
          "114349.500000",
          "114349.500000",
          "114349.500000",
          "114349.500000",
          "114349.500000",
          "114349.515000",
          "114351.203000"
        ],
        "InstanceNumber": [
          1,
          2,
          3,
          4,
          5,
          6,
          7,
          8,
          9,
          10,
          11,
          12,
          13,
          14,
          15,
          16,
          17,
          18,
          19,
          20,
          21,
          22,
          23,
          24,
          25,
          26,
          27,
          28,
          29,
          30,
          31,
          32,
          33,
          34,
          35,
          36,
          37,
          38,
          39,
          40,
          41,
          42,
          43,
          44,
          45,
          46,
          47,
          48,
          49,
          50,
          51,
          52,
          53,
          54,
          55,
          56,
          57,
          58,
          59,
          60,
          61,
          62,
          63,
          64,
          65,
          66,
          67,
          68,
          69,
          70,
          71,
          72,
          73,
          74,
          75,
          76,
          77,
          78,
          79,
          80,
          81,
          82,
          83,
          84,
          85,
          86,
          87,
          88,
          89,
          90,
          91,
          92,
          93,
          94,
          95,
          96,
          97,
          98,
          99,
          100,
          101,
          102,
          103,
          104,
          105,
          106,
          107,
          108,
          109,
          110,
          111,
          112,
          113,
          114,
          115,
          116,
          117,
          118,
          119,
          120,
          121,
          122,
          123,
          124,
          125,
          126,
          127,
          128,
          129,
          130,
          131,
          132,
          133,
          134,
          135,
          136,
          137,
          138,
          139,
          140,
          141,
          142,
          143,
          144,
          145,
          146,
          147,
          148,
          149,
          150,
          151,
          152,
          153,
          154,
          155,
          156,
          157,
          158,
          159,
          160,
          161,
          162,
          163,
          164
        ],
        "WindowCenter": [
          935.0,
          935.0,
          935.0,
          935.0,
          935.0,
          936.0,
          936.0,
          936.0,
          936.0,
          936.0,
          936.0,
          936.0,
          937.0,
          936.0,
          936.0,
          935.0,
          936.0,
          936.0,
          936.0,
          936.0,
          936.0,
          936.0,
          936.0,
          936.0,
          935.0,
          936.0,
          936.0,
          937.0,
          936.0,
          936.0,
          936.0,
          936.0,
          936.0,
          935.0,
          936.0,
          936.0,
          936.0,
          936.0,
          936.0,
          935.0,
          935.0,
          935.0,
          936.0,
          935.0,
          935.0,
          935.0,
          935.0,
          935.0,
          935.0,
          935.0,
          935.0,
          935.0,
          936.0,
          937.0,
          935.0,
          935.0,
          935.0,
          934.0,
          935.0,
          935.0,
          934.0,
          934.0,
          935.0,
          936.0,
          936.0,
          936.0,
          936.0,
          936.0,
          937.0,
          936.0,
          936.0,
          935.0,
          935.0,
          935.0,
          935.0,
          935.0,
          936.0,
          935.0,
          935.0,
          935.0,
          935.0,
          935.0,
          935.0,
          936.0,
          935.0,
          934.0,
          935.0,
          935.0,
          936.0,
          936.0,
          935.0,
          935.0,
          934.0,
          935.0,
          936.0,
          936.0,
          935.0,
          934.0,
          935.0,
          935.0,
          935.0,
          935.0,
          935.0,
          935.0,
          936.0,
          935.0,
          935.0,
          935.0,
          935.0,
          936.0,
          936.0,
          936.0,
          934.0,
          934.0,
          934.0,
          934.0,
          934.0,
          934.0,
          933.0,
          934.0,
          935.0,
          935.0,
          935.0,
          934.0,
          934.0,
          934.0,
          936.0,
          936.0,
          934.0,
          934.0,
          934.0,
          934.0,
          934.0,
          934.0,
          934.0,
          935.0,
          935.0,
          934.0,
          933.0,
          933.0,
          933.0,
          935.0,
          935.0,
          935.0,
          935.0,
          935.0,
          934.0,
          935.0,
          935.0,
          935.0,
          935.0,
          934.0,
          933.0,
          933.0,
          934.0,
          935.0,
          933.0,
          932.0,
          933.0,
          934.0,
          934.0,
          933.0,
          933.0,
          934.0
        ],
        "WindowWidth": [
          2459.0,
          2456.0,
          2456.0,
          2457.0,
          2459.0,
          2459.0,
          2460.0,
          2465.0,
          2466.0,
          2462.0,
          2461.0,
          2471.0,
          2470.0,
          2466.0,
          2465.0,
          2467.0,
          2467.0,
          2466.0,
          2462.0,
          2459.0,
          2461.0,
          2465.0,
          2462.0,
          2460.0,
          2464.0,
          2469.0,
          2468.0,
          2465.0,
          2463.0,
          2461.0,
          2462.0,
          2461.0,
          2460.0,
          2460.0,
          2460.0,
          2463.0,
          2465.0,
          2469.0,
          2467.0,
          2465.0,
          2460.0,
          2464.0,
          2467.0,
          2464.0,
          2460.0,
          2460.0,
          2464.0,
          2465.0,
          2462.0,
          2460.0,
          2459.0,
          2460.0,
          2461.0,
          2463.0,
          2460.0,
          2460.0,
          2459.0,
          2458.0,
          2460.0,
          2457.0,
          2455.0,
          2455.0,
          2460.0,
          2465.0,
          2469.0,
          2469.0,
          2470.0,
          2471.0,
          2474.0,
          2473.0,
          2466.0,
          2462.0,
          2461.0,
          2446.0,
          2470.0,
          2468.0,
          2462.0,
          2459.0,
          2459.0,
          2457.0,
          2457.0,
          2457.0,
          2460.0,
          2463.0,
          2460.0,
          2454.0,
          2457.0,
          2460.0,
          2464.0,
          2464.0,
          2460.0,
