{
  "aor": 0.0013927439024390242,
  "aqi": 0.00478147274390244,
  "bids_meta": {
    "AcquisitionMatrixPE": 96,
    "AcquisitionNumber": 1,
    "AcquisitionTime": "10:43:31.990000",
    "BandwidthPerPixelPhaseEncode": 52.083,
    "BaseResolution": 96,
    "BodyPartExamined": "HEAD",
    "ConversionSoftware": "dcm2niix",
    "ConversionSoftwareVersion": "v1.0.20180622 GCC6.3.0",
    "DerivedVendorReportedEchoSpacing": 0.000600004,
    "DeviceSerialNumber": "18926",
    "DwellTime": 2.6e-06,
    "EchoTime": 0.025,
    "EffectiveEchoSpacing": 0.000200001,
    "FlipAngle": 50,
    "ImageOrientationPatientDICOM": [
      0.999992,
      0.00067012,
      0.00404905,
      2.11009e-10,
      0.98658,
      -0.16328
    ],
    "ImageType": [
      "ORIGINAL",
      "PRIMARY",
      "M",
      "ND",
      "ECHO",
      "00",
      "MOSAIC"
    ],
    "InPlanePhaseEncodingDirectionDICOM": "ROW",
    "InstitutionName": "NIMH",
    "InstitutionalDepartmentName": "Department",
    "MRAcquisitionType": "2D",
    "MagneticFieldStrength": 6.98,
    "Manufacturer": "Siemens",
    "ManufacturersModelName": "Investigational_Device_7T",
    "Modality": "MR",
    "ParallelReductionFactorInPlane": 3,
    "PartialFourier": 1,
    "PatientPosition": "HFS",
    "PercentPhaseFOV": 100,
    "PhaseEncodingDirection": "i",
    "PhaseEncodingSteps": 94,
    "PhaseResolution": 1,
    "PixelBandwidth": 2003,
    "ProcedureStepDescription": "MRI_Procedure_Limited",
    "ProtocolName": "NIH_EPI_2.0iso_TR2_Run03",
    "PulseSequenceDetails": "%CustomerSeq%_inati_nih_epi",
    "ReceiveCoilName": "32Ch_Head_7T",
    "ReconMatrixPE": 96,
    "RepetitionTime": 2,
    "SAR": 0.0855205,
    "ScanningSequence": "EP",
    "SequenceName": "epfid2d1_96",
    "SequenceVariant": "SK",
    "SeriesDescription": "NIH_EPI_2.0iso_TR2_Run03",
    "SeriesNumber": 7,
    "ShimSetting": [
      -100,
      166,
      1204,
      2784,
      -173,
      729,
      151,
      -375
    ],
    "SliceThickness": 2,
    "SliceTiming": [
      1.005,
      0,
      1.0425,
      0.0375,
      1.08,
      0.075,
      1.1175,
      0.1125,
      1.1525,
      0.15,
      1.19,
      0.1875,
      1.2275,
      0.225,
      1.265,
      0.2625,
      1.3025,
      0.2975,
      1.34,
      0.335,
      1.3775,
      0.3725,
      1.415,
      0.41,
      1.45,
      0.4475,
      1.4875,
      0.485,
      1.525,
      0.5225,
      1.5625,
      0.56,
      1.6,
      0.595,
      1.6375,
      0.6325,
      1.675,
      0.67,
      1.7125,
      0.7075,
      1.7475,
      0.745,
      1.785,
      0.7825,
      1.8225,
      0.82,
      1.86,
      0.8575,
      1.8975,
      0.8925,
      1.935,
      0.93,
      1.9725,
      0.9675
    ],
    "SoftwareVersions": "syngo_MR_B17",
    "SpacingBetweenSlices": 2,
    "StationName": "FMRIFD7T",
    "TaskName": "FullFovAttentionTask",
    "TotalReadoutTime": 0.0190001,
    "TxRefAmp": 270,
    "dataset": "ds001555",
    "dcmmeta_affine": [
      [
        -1.9999831914901733,
        4.2201880878778297e-10,
        0.008208253420889378,
        95.76705169677734
      ],
      [
        -0.0013402394251897931,
        1.973159670829773,
        -0.32655632495880127,
        -63.118167877197266
      ],
      [
        0.008098097518086433,
        0.32655906677246094,
        1.9731431007385254,
        -51.01611328125
      ],
      [
        0.0,
        0.0,
        0.0,
        1.0
      ]
    ],
    "dcmmeta_reorient_transform": [
      [
        0.0,
        -1.0,
        0.0,
        95.0
      ],
      [
        1.0,
        0.0,
        0.0,
        0.0
      ],
      [
        0.0,
        0.0,
        1.0,
        0.0
      ],
      [
        0.0,
        0.0,
        0.0,
        1.0
      ]
    ],
    "dcmmeta_shape": [
      96,
      96,
      54,
      164
    ],
    "dcmmeta_slice_dim": 2,
    "dcmmeta_version": 0.6,
    "global": {
      "const": {
        "AcquisitionMatrix": [
          0,
          96,
          96,
          0
        ],
        "Allergies": "No Known Allergies",
        "AngioFlag": "N",
        "BitsAllocated": 16,
        "BitsStored": 12,
        "BodyPartExamined": "HEAD",
        "Columns": 768,
        "EchoNumbers": 1,
        "EchoTime": 25.0,
        "EchoTrainLength": 1,
        "FlipAngle": 50.0,
        "HighBit": 11,
        "ImageOrientationPatient": [
          0.99999157803662,
          0.00067011969073,
          0.00404904870684,
          2.110094e-10,
          0.98657984636313,
          -0.1632795356133
        ],
        "ImagePositionPatient": [
          -767.761392775,
          -787.76398131462,
          87.009884915845
        ],
        "ImageType": [
          "ORIGINAL",
          "PRIMARY",
          "M",
          "ND",
          "ECHO_00",
          "MOSAIC"
        ],
        "ImagedNucleus": "1H",
        "ImagingFrequency": 297.20509,
        "InPlanePhaseEncodingDirection": "ROW",
        "LargestImagePixelValue": 4095,
        "MRAcquisitionType": "2D",
        "MagneticFieldStrength": 6.98,
        "Manufacturer": "SIEMENS",
        "ManufacturerModelName": "Investigational_Device_7T",
        "Modality": "MR",
        "NumberOfAverages": 1.0,
        "NumberOfPhaseEncodingSteps": 94,
        "PercentPhaseFieldOfView": 100.0,
        "PercentSampling": 100.0,
        "PerformedProcedureStepStartTime": "100542.421000",
        "PhotometricInterpretation": "MONOCHROME2",
        "PixelBandwidth": 2003.0,
        "PixelRepresentation": 0,
        "PixelSpacing": [
          2.0,
          2.0
        ],
        "PositionReferenceIndicator": "",
        "ProcedureCodeSequence": [
          {
            "CodeMeaning": "MRI Procedure Limited",
            "CodeValue": "MI01491",
            "CodingSchemeDesignator": "USA Standard",
            "ContextIdentifier": "4000109590"
          }
        ],
        "ProtocolName": "NIH_EPI_2.0iso_TR2_Run03",
        "ReferencedStudySequence": [
          {
            "ReferencedSOPClassUID": "1.2.840.10008.3.1.2.3.1",
            "ReferencedSOPInstanceUID": "1.2.840.113564.9.1.2723958737.61.2.5000075354"
          }
        ],
        "RepetitionTime": 2000.0,
        "RequestedProcedureCodeSequence": [
          {
            "CodeMeaning": "MRI Procedure Limited",
            "CodeValue": "MI01491",
            "CodingSchemeDesignator": "USA Standard",
            "ContextIdentifier": "4000109590"
          }
        ],
        "RequestingService": "MHMI",
        "Rows": 768,
        "SAR": 0.08552052865436,
        "SamplesPerPixel": 1,
        "ScanningSequence": "EP",
        "SequenceName": "epfid2d1_96",
        "SequenceVariant": "SK",
        "SeriesDescription": "NIH_EPI_2.0iso_TR2_Run03",
        "SeriesNumber": 7,
        "SliceLocation": -39.632187810606,
        "SliceThickness": 2.0,
        "SmallestImagePixelValue": 0,
        "SoftwareVersions": "syngo MR B17",
        "SpacingBetweenSlices": 2.0000000154846,
        "TransmitCoilName": "32Ch_Head_7T",
        "VariableFlipAngleFlag": "N",
        "WindowCenterWidthExplanation": "Algo1",
        "dBdt": 0.0
      },
      "slices": {}
    },
    "modality": "bold",
    "run_id": 4,
    "session_id": "01",
    "subject_id": "003",
    "task_id": "FullFovAttentionTask",
    "time": {
      "samples": {
        "AcquisitionNumber": [
          1,
          2,
          3,
          4,
          5,
          6,
          7,
          8,
          9,
          10,
          11,
          12,
          13,
          14,
          15,
          16,
          17,
          18,
          19,
          20,
          21,
          22,
          23,
          24,
          25,
          26,
          27,
          28,
          29,
          30,
          31,
          32,
          33,
          34,
          35,
          36,
          37,
          38,
          39,
          40,
          41,
          42,
          43,
          44,
          45,
          46,
          47,
          48,
          49,
          50,
          51,
          52,
          53,
          54,
          55,
          56,
          57,
          58,
          59,
          60,
          61,
          62,
          63,
          64,
          65,
          66,
          67,
          68,
          69,
          70,
          71,
          72,
          73,
          74,
          75,
          76,
          77,
          78,
          79,
          80,
          81,
          82,
          83,
          84,
          85,
          86,
          87,
          88,
          89,
          90,
          91,
          92,
          93,
          94,
          95,
          96,
          97,
          98,
          99,
          100,
          101,
          102,
          103,
          104,
          105,
          106,
          107,
          108,
          109,
          110,
          111,
          112,
          113,
          114,
          115,
          116,
          117,
          118,
          119,
          120,
          121,
          122,
          123,
          124,
          125,
          126,
          127,
          128,
          129,
          130,
          131,
          132,
          133,
          134,
          135,
          136,
          137,
          138,
          139,
          140,
          141,
          142,
          143,
          144,
          145,
          146,
          147,
          148,
          149,
          150,
          151,
          152,
          153,
          154,
          155,
          156,
          157,
          158,
          159,
          160,
          161,
          162,
          163,
          164
        ],
        "AcquisitionTime": [
          "104331.990000",
          "104336.005000",
          "104338.015000",
          "104340.022500",
          "104342.030000",
          "104344.037500",
          "104346.045000",
          "104348.055000",
          "104350.062500",
          "104352.070000",
          "104354.077500",
          "104356.087500",
          "104358.095000",
          "104400.102500",
          "104402.110000",
          "104404.117500",
          "104406.127500",
          "104408.135000",
          "104410.142500",
          "104412.150000",
          "104414.157500",
          "104416.167500",
          "104418.175000",
          "104420.182500",
          "104422.190000",
          "104424.200000",
          "104426.207500",
          "104428.215000",
          "104430.222500",
          "104432.230000",
          "104434.240000",
          "104436.247500",
          "104438.255000",
          "104440.262500",
          "104442.270000",
          "104444.280000",
          "104446.287500",
          "104448.295000",
          "104450.302500",
          "104452.312500",
          "104454.320000",
          "104456.327500",
          "104458.335000",
          "104500.342500",
          "104502.352500",
          "104504.360000",
          "104506.367500",
          "104508.375000",
          "104510.382500",
          "104512.392500",
          "104514.400000",
          "104516.407500",
          "104518.415000",
          "104520.422500",
          "104522.432500",
          "104524.440000",
          "104526.447500",
          "104528.455000",
          "104530.465000",
          "104532.472500",
          "104534.480000",
          "104536.487500",
          "104538.495000",
          "104540.505000",
          "104542.512500",
          "104544.520000",
          "104546.527500",
          "104548.535000",
          "104550.545000",
          "104552.552500",
          "104554.560000",
          "104556.567500",
          "104558.577500",
          "104600.585000",
          "104602.592500",
          "104604.600000",
          "104606.607500",
          "104608.617500",
          "104610.625000",
          "104612.632500",
          "104614.640000",
          "104616.647500",
          "104618.657500",
          "104620.665000",
          "104622.672500",
          "104624.680000",
          "104626.690000",
          "104628.697500",
          "104630.705000",
          "104632.712500",
          "104634.720000",
          "104636.730000",
          "104638.737500",
          "104640.745000",
          "104642.752500",
          "104644.760000",
          "104646.770000",
          "104648.777500",
          "104650.785000",
          "104652.792500",
          "104654.800000",
          "104656.810000",
          "104658.817500",
          "104700.825000",
          "104702.832500",
          "104704.842500",
          "104706.850000",
          "104708.857500",
          "104710.865000",
          "104712.872500",
          "104714.882500",
          "104716.890000",
          "104718.897500",
          "104720.905000",
          "104722.912500",
          "104724.922500",
          "104726.930000",
          "104728.937500",
          "104730.945000",
          "104732.955000",
          "104734.962500",
          "104736.970000",
          "104738.977500",
          "104740.985000",
          "104742.995000",
          "104745.002500",
          "104747.010000",
          "104749.017500",
          "104751.025000",
          "104753.035000",
          "104755.042500",
          "104757.050000",
          "104759.057500",
          "104801.067500",
          "104803.075000",
          "104805.082500",
          "104807.090000",
          "104809.097500",
          "104811.107500",
          "104813.115000",
          "104815.122500",
          "104817.130000",
          "104819.137500",
          "104821.147500",
          "104823.155000",
          "104825.162500",
          "104827.170000",
          "104829.177500",
          "104831.187500",
          "104833.195000",
          "104835.202500",
          "104837.210000",
          "104839.220000",
          "104841.227500",
          "104843.235000",
          "104845.242500",
          "104847.250000",
          "104849.260000",
          "104851.267500",
          "104853.275000",
          "104855.282500",
          "104857.290000",
          "104859.300000",
          "104901.307500"
        ],
        "ContentTime": [
          "104420.500000",
          "104420.515000",
          "104420.515000",
          "104420.515000",
          "104420.515000",
          "104420.515000",
          "104420.515000",
          "104420.531000",
          "104420.531000",
          "104420.531000",
          "104420.531000",
          "104420.531000",
          "104420.531000",
          "104420.531000",
          "104420.546000",
          "104420.546000",
          "104420.546000",
          "104420.546000",
          "104420.546000",
          "104420.546000",
          "104420.562000",
          "104420.562000",
          "104420.562000",
          "104500.500000",
          "104500.500000",
          "104500.500000",
          "104500.515000",
          "104500.515000",
          "104500.515000",
          "104500.515000",
          "104500.515000",
          "104500.515000",
          "104500.515000",
          "104500.531000",
          "104500.531000",
          "104500.531000",
          "104500.531000",
          "104500.531000",
          "104500.531000",
          "104500.531000",
          "104500.546000",
          "104500.546000",
          "104500.546000",
          "104540.500000",
          "104540.500000",
          "104540.500000",
          "104540.500000",
          "104540.500000",
          "104540.515000",
          "104540.515000",
          "104540.515000",
          "104540.515000",
          "104540.531000",
          "104540.531000",
          "104540.531000",
          "104540.531000",
          "104540.531000",
          "104540.531000",
          "104540.531000",
          "104540.546000",
          "104540.546000",
          "104540.546000",
          "104540.546000",
          "104620.500000",
          "104620.500000",
          "104620.515000",
          "104620.515000",
          "104620.515000",
          "104620.515000",
          "104620.515000",
          "104620.531000",
          "104620.531000",
          "104620.531000",
          "104620.531000",
          "104620.531000",
          "104620.531000",
          "104620.531000",
          "104620.546000",
          "104620.546000",
          "104620.546000",
          "104620.546000",
          "104620.546000",
          "104620.546000",
          "104700.500000",
          "104700.500000",
          "104700.500000",
          "104700.500000",
          "104700.500000",
          "104700.515000",
          "104700.515000",
          "104700.515000",
          "104700.515000",
          "104700.515000",
          "104700.515000",
          "104700.515000",
          "104700.531000",
          "104700.531000",
          "104700.531000",
          "104700.531000",
          "104700.546000",
          "104700.546000",
          "104700.546000",
          "104700.546000",
          "104740.500000",
          "104740.500000",
          "104740.500000",
          "104740.500000",
          "104740.500000",
          "104740.515000",
          "104740.515000",
          "104740.515000",
          "104740.515000",
          "104740.515000",
          "104740.515000",
          "104740.515000",
          "104740.531000",
          "104740.531000",
          "104740.531000",
          "104740.531000",
          "104740.531000",
          "104740.546000",
          "104740.546000",
          "104740.546000",
          "104820.500000",
          "104820.500000",
          "104820.500000",
          "104820.500000",
          "104820.500000",
          "104820.515000",
          "104820.515000",
          "104820.515000",
          "104820.515000",
          "104820.531000",
          "104820.531000",
          "104820.531000",
          "104820.531000",
          "104820.546000",
          "104820.546000",
          "104820.546000",
          "104820.546000",
          "104820.546000",
          "104820.546000",
          "104820.546000",
          "104900.500000",
          "104900.500000",
          "104900.500000",
          "104900.500000",
          "104900.500000",
          "104900.515000",
          "104900.515000",
          "104900.515000",
          "104900.531000",
          "104900.531000",
          "104900.531000",
          "104900.531000",
          "104900.531000",
          "104900.531000",
          "104900.531000",
          "104900.546000",
          "104900.546000",
          "104900.546000",
          "104900.546000",
          "104900.546000",
          "104901.750000"
        ],
        "InstanceCreationTime": [
          "104420.500000",
          "104420.515000",
          "104420.515000",
          "104420.515000",
          "104420.515000",
          "104420.515000",
          "104420.515000",
          "104420.531000",
          "104420.531000",
          "104420.531000",
          "104420.531000",
          "104420.531000",
          "104420.531000",
          "104420.531000",
          "104420.546000",
          "104420.546000",
          "104420.546000",
          "104420.546000",
          "104420.546000",
          "104420.546000",
          "104420.562000",
          "104420.562000",
          "104420.562000",
          "104500.500000",
          "104500.500000",
          "104500.500000",
          "104500.515000",
          "104500.515000",
          "104500.515000",
          "104500.515000",
          "104500.515000",
          "104500.515000",
          "104500.515000",
          "104500.531000",
          "104500.531000",
          "104500.531000",
          "104500.531000",
          "104500.531000",
          "104500.531000",
          "104500.531000",
          "104500.546000",
          "104500.546000",
          "104500.546000",
          "104540.500000",
          "104540.500000",
          "104540.500000",
          "104540.500000",
          "104540.500000",
          "104540.515000",
          "104540.515000",
          "104540.515000",
          "104540.515000",
          "104540.531000",
          "104540.531000",
          "104540.531000",
          "104540.531000",
          "104540.531000",
          "104540.531000",
          "104540.531000",
          "104540.546000",
          "104540.546000",
          "104540.546000",
          "104540.546000",
          "104620.500000",
          "104620.500000",
          "104620.515000",
          "104620.515000",
          "104620.515000",
          "104620.515000",
          "104620.515000",
          "104620.531000",
          "104620.531000",
          "104620.531000",
          "104620.531000",
          "104620.531000",
          "104620.531000",
          "104620.531000",
          "104620.546000",
          "104620.546000",
          "104620.546000",
          "104620.546000",
          "104620.546000",
          "104620.546000",
          "104700.500000",
          "104700.500000",
          "104700.500000",
          "104700.500000",
          "104700.500000",
          "104700.515000",
          "104700.515000",
          "104700.515000",
          "104700.515000",
          "104700.515000",
          "104700.515000",
          "104700.515000",
          "104700.531000",
          "104700.531000",
          "104700.531000",
          "104700.531000",
          "104700.546000",
          "104700.546000",
          "104700.546000",
          "104700.546000",
          "104740.500000",
          "104740.500000",
          "104740.500000",
          "104740.500000",
          "104740.500000",
          "104740.515000",
          "104740.515000",
          "104740.515000",
          "104740.515000",
          "104740.515000",
          "104740.515000",
          "104740.515000",
          "104740.531000",
          "104740.531000",
          "104740.531000",
          "104740.531000",
          "104740.531000",
          "104740.546000",
          "104740.546000",
          "104740.546000",
          "104820.500000",
          "104820.500000",
          "104820.500000",
          "104820.500000",
          "104820.500000",
          "104820.515000",
          "104820.515000",
          "104820.515000",
          "104820.515000",
          "104820.531000",
          "104820.531000",
          "104820.531000",
          "104820.531000",
          "104820.546000",
          "104820.546000",
          "104820.546000",
          "104820.546000",
          "104820.546000",
          "104820.546000",
          "104820.546000",
          "104900.500000",
          "104900.500000",
          "104900.500000",
          "104900.500000",
          "104900.500000",
          "104900.515000",
          "104900.515000",
          "104900.515000",
          "104900.531000",
          "104900.531000",
          "104900.531000",
          "104900.531000",
          "104900.531000",
          "104900.531000",
          "104900.531000",
          "104900.546000",
          "104900.546000",
          "104900.546000",
          "104900.546000",
          "104900.546000",
          "104901.750000"
        ],
        "InstanceNumber": [
          1,
          2,
          3,
          4,
          5,
          6,
          7,
          8,
          9,
          10,
          11,
          12,
          13,
          14,
          15,
          16,
          17,
          18,
          19,
          20,
          21,
          22,
          23,
          24,
          25,
          26,
          27,
          28,
          29,
          30,
          31,
          32,
          33,
          34,
          35,
          36,
          37,
          38,
          39,
          40,
          41,
          42,
          43,
          44,
          45,
          46,
          47,
          48,
          49,
          50,
          51,
          52,
          53,
          54,
          55,
          56,
          57,
          58,
          59,
          60,
          61,
          62,
          63,
          64,
          65,
          66,
          67,
          68,
          69,
          70,
          71,
          72,
          73,
          74,
          75,
          76,
          77,
          78,
          79,
          80,
          81,
          82,
          83,
          84,
          85,
          86,
          87,
          88,
          89,
          90,
          91,
          92,
          93,
          94,
          95,
          96,
          97,
          98,
          99,
          100,
          101,
          102,
          103,
          104,
          105,
          106,
          107,
          108,
          109,
          110,
          111,
          112,
          113,
          114,
          115,
          116,
          117,
          118,
          119,
          120,
          121,
          122,
          123,
          124,
          125,
          126,
          127,
          128,
          129,
          130,
          131,
          132,
          133,
          134,
          135,
          136,
          137,
          138,
          139,
          140,
          141,
          142,
          143,
          144,
          145,
          146,
          147,
          148,
          149,
          150,
          151,
          152,
          153,
          154,
          155,
          156,
          157,
          158,
          159,
          160,
          161,
          162,
          163,
          164
        ],
        "WindowCenter": [
          937.0,
          938.0,
          938.0,
          939.0,
          938.0,
          939.0,
          939.0,
          940.0,
          941.0,
          941.0,
          942.0,
          941.0,
          941.0,
          941.0,
          941.0,
          942.0,
          941.0,
          941.0,
          940.0,
          940.0,
          939.0,
          940.0,
          939.0,
          940.0,
          940.0,
          940.0,
          939.0,
          940.0,
          940.0,
          940.0,
          942.0,
          941.0,
          942.0,
          940.0,
          940.0,
          940.0,
          941.0,
          941.0,
          939.0,
          939.0,
          940.0,
          941.0,
          941.0,
          940.0,
          941.0,
          940.0,
          940.0,
          941.0,
          942.0,
          940.0,
          939.0,
          940.0,
          940.0,
          941.0,
          940.0,
          940.0,
          940.0,
          939.0,
          938.0,
          939.0,
          940.0,
          940.0,
          939.0,
          939.0,
          939.0,
          940.0,
          941.0,
          940.0,
          940.0,
          940.0,
          940.0,
          941.0,
          942.0,
          941.0,
          940.0,
          940.0,
          941.0,
          942.0,
          940.0,
          939.0,
          939.0,
          940.0,
          941.0,
          941.0,
          939.0,
          940.0,
          940.0,
          940.0,
          940.0,
          939.0,
          940.0,
          939.0,
          941.0,
          941.0,
          940.0,
          940.0,
          939.0,
          938.0,
          939.0,
          940.0,
          940.0,
          939.0,
          939.0,
          940.0,
          940.0,
          940.0,
          940.0,
          940.0,
          940.0,
          940.0,
          939.0,
          940.0,
          941.0,
          940.0,
          940.0,
          940.0,
          940.0,
          940.0,
          941.0,
          940.0,
          939.0,
          939.0,
          939.0,
          940.0,
          940.0,
          940.0,
          940.0,
          942.0,
          942.0,
          940.0,
          940.0,
          941.0,
          941.0,
          941.0,
          940.0,
          940.0,
          940.0,
          940.0,
          940.0,
          940.0,
          941.0,
          939.0,
          940.0,
          940.0,
          940.0,
          940.0,
          940.0,
          940.0,
          940.0,
          940.0,
          941.0,
          943.0,
          941.0,
          941.0,
          940.0,
          940.0,
          940.0,
          941.0,
          940.0,
          939.0,
          940.0,
          941.0,
          941.0,
          939.0
        ],
        "WindowWidth": [
          2462.0,
          2467.0,
          2468.0,
          2465.0,
          2467.0,
          2472.0,
          2475.0,
          2482.0,
          2487.0,
          2491.0,
          2490.0,
          2488.0,
          2488.0,
          2488.0,
          2494.0,
          2495.0,
          2492.0,
          2486.0,
          2484.0,
          2482.0,
          2482.0,
          2482.0,
          2480.0,
          2483.0,
          2487.0,
          2482.0,
          2480.0,
          2481.0,
          2481.0,
          2483.0,
          2490.0,
          2494.0,
          2487.0,
          2478.0,
          2477.0,
          2486.0,
          2491.0,
          2484.0,
          2476.0,
          2478.0,
          2489.0,
          2493.0,
          2489.0,
          2481.0,
          2478.0,
          2482.0,
          2488.0,
          2491.0,
          2486.0,
          2481.0,
          2483.0,
          2482.0,
          2483.0,
          2482.0,
          2484.0,
          2490.0,
          2485.0,
          2475.0,
          2472.0,
          2480.0,
          2484.0,
          2478.0,
          2475.0,
          2477.0,
          2481.0,
          2488.0,
          2487.0,
          2491.0,
          2493.0,
          2489.0,
          2487.0,
          2492.0,
          2494.0,
          2491.0,
          2488.0,
          2489.0,
          2496.0,
          2495.0,
          2485.0,
          2481.0,
          2482.0,
          2489.0,
          2491.0,
          2485.0,
          2480.0,
          2479.0,
          2485.0,
          2489.0,
          2484.0,
          2479.0,
          2481.0,
