{
  "aor": 0.0016454268292682925,
  "aqi": 0.005269669695121952,
  "bids_meta": {
    "AcquisitionMatrixPE": 96,
    "AcquisitionNumber": 1,
    "AcquisitionTime": "13:43:51.292500",
    "BandwidthPerPixelPhaseEncode": 52.083,
    "BaseResolution": 96,
    "BodyPartExamined": "HEAD",
    "ConversionSoftware": "dcm2niix",
    "ConversionSoftwareVersion": "v1.0.20180622 GCC6.3.0",
    "DerivedVendorReportedEchoSpacing": 0.000600004,
    "DeviceSerialNumber": "18926",
    "DwellTime": 2.6e-06,
    "EchoTime": 0.025,
    "EffectiveEchoSpacing": 0.000200001,
    "FlipAngle": 50,
    "ImageOrientationPatientDICOM": [
      0.999992,
      0.00067012,
      0.00404905,
      2.11009e-10,
      0.98658,
      -0.16328
    ],
    "ImageType": [
      "ORIGINAL",
      "PRIMARY",
      "M",
      "ND",
      "ECHO",
      "00",
      "MOSAIC"
    ],
    "InPlanePhaseEncodingDirectionDICOM": "ROW",
    "InstitutionName": "NIMH",
    "InstitutionalDepartmentName": "Department",
    "MRAcquisitionType": "2D",
    "MagneticFieldStrength": 6.98,
    "Manufacturer": "Siemens",
    "ManufacturersModelName": "Investigational_Device_7T",
    "Modality": "MR",
    "ParallelReductionFactorInPlane": 3,
    "PartialFourier": 1,
    "PatientPosition": "HFS",
    "PercentPhaseFOV": 100,
    "PhaseEncodingDirection": "i",
    "PhaseEncodingSteps": 94,
    "PhaseResolution": 1,
    "PixelBandwidth": 2003,
    "ProcedureStepDescription": "MRI_Procedure_Limited",
    "ProtocolName": "NIH_EPI_2.0iso_TR2_Run06",
    "PulseSequenceDetails": "%CustomerSeq%_inati_nih_epi",
    "ReceiveCoilName": "32Ch_Head_7T",
    "ReconMatrixPE": 96,
    "RepetitionTime": 2,
    "SAR": 0.0772875,
    "ScanningSequence": "EP",
    "SequenceName": "epfid2d1_96",
    "SequenceVariant": "SK",
    "SeriesDescription": "NIH_EPI_2.0iso_TR2_Run06",
    "SeriesNumber": 10,
    "ShimSetting": [
      -82,
      284,
      1186,
      1731,
      -62,
      609,
      209,
      -258
    ],
    "SliceThickness": 2,
    "SliceTiming": [
      1.0025,
      0,
      1.04,
      0.0375,
      1.0775,
      0.075,
      1.115,
      0.11,
      1.1525,
      0.1475,
      1.19,
      0.185,
      1.2275,
      0.2225,
      1.2625,
      0.26,
      1.3,
      0.2975,
      1.3375,
      0.335,
      1.375,
      0.37,
      1.4125,
      0.4075,
      1.45,
      0.445,
      1.4875,
      0.4825,
      1.525,
      0.52,
      1.56,
      0.5575,
      1.5975,
      0.595,
      1.635,
      0.6325,
      1.6725,
      0.6675,
      1.71,
      0.705,
      1.7475,
      0.7425,
      1.785,
      0.78,
      1.82,
      0.8175,
      1.8575,
      0.855,
      1.895,
      0.8925,
      1.9325,
      0.93,
      1.97,
      0.965
    ],
    "SoftwareVersions": "syngo_MR_B17",
    "SpacingBetweenSlices": 2,
    "StationName": "FMRIFD7T",
    "TaskName": "FullFovNoAttentionTask",
    "TotalReadoutTime": 0.0190001,
    "TxRefAmp": 279,
    "dataset": "ds001555",
    "dcmmeta_affine": [
      [
        -1.9999831914901733,
        4.2201880878778297e-10,
        0.008208253420889378,
        95.76705169677734
      ],
      [
        -0.0013402394251897931,
        1.973159670829773,
        -0.32655632495880127,
        -61.09407043457031
      ],
      [
        0.008098097518086433,
        0.32655906677246094,
        1.9731431007385254,
        -53.04020690917969
      ],
      [
        0.0,
        0.0,
        0.0,
        1.0
      ]
    ],
    "dcmmeta_reorient_transform": [
      [
        0.0,
        -1.0,
        0.0,
        95.0
      ],
      [
        1.0,
        0.0,
        0.0,
        0.0
      ],
      [
        0.0,
        0.0,
        1.0,
        0.0
      ],
      [
        0.0,
        0.0,
        0.0,
        1.0
      ]
    ],
    "dcmmeta_shape": [
      96,
      96,
      54,
      164
    ],
    "dcmmeta_slice_dim": 2,
    "dcmmeta_version": 0.6,
    "global": {
      "const": {
        "AcquisitionMatrix": [
          0,
          96,
          96,
          0
        ],
        "Allergies": "No Known Allergies",
        "AngioFlag": "N",
        "BitsAllocated": 16,
        "BitsStored": 12,
        "BodyPartExamined": "HEAD",
        "Columns": 768,
        "EchoNumbers": 1,
        "EchoTime": 25.0,
        "EchoTrainLength": 1,
        "FlipAngle": 50.0,
        "HighBit": 11,
        "ImageOrientationPatient": [
          0.99999157803662,
          0.00067011969073,
          0.00404904870684,
          2.110094e-10,
          0.98657984636313,
          -0.1632795356133
        ],
        "ImagePositionPatient": [
          -767.761392775,
          -789.78807875724,
          84.985791287915
        ],
        "ImageType": [
          "ORIGINAL",
          "PRIMARY",
          "M",
          "ND",
          "ECHO_00",
          "MOSAIC"
        ],
        "ImagedNucleus": "1H",
        "ImagingFrequency": 297.205086,
        "InPlanePhaseEncodingDirection": "ROW",
        "LargestImagePixelValue": 4095,
        "MRAcquisitionType": "2D",
        "MagneticFieldStrength": 6.98,
        "Manufacturer": "SIEMENS",
        "ManufacturerModelName": "Investigational_Device_7T",
        "Modality": "MR",
        "NumberOfAverages": 1.0,
        "NumberOfPhaseEncodingSteps": 94,
        "PercentPhaseFieldOfView": 100.0,
        "PercentSampling": 100.0,
        "PerformedProcedureStepStartTime": "125606.015000",
        "PhotometricInterpretation": "MONOCHROME2",
        "PixelBandwidth": 2003.0,
        "PixelRepresentation": 0,
        "PixelSpacing": [
          2.0,
          2.0
        ],
        "PositionReferenceIndicator": "",
        "ProcedureCodeSequence": [
          {
            "CodeMeaning": "MRI Procedure Limited",
            "CodeValue": "MI01491",
            "CodingSchemeDesignator": "USA Standard",
            "ContextIdentifier": "4000111519"
          }
        ],
        "ProtocolName": "NIH_EPI_2.0iso_TR2_Run06",
        "ReferencedStudySequence": [
          {
            "ReferencedSOPClassUID": "1.2.840.10008.3.1.2.3.1",
            "ReferencedSOPInstanceUID": "1.2.840.113564.9.1.2723958737.61.2.5000077300"
          }
        ],
        "RepetitionTime": 2000.0,
        "RequestedProcedureCodeSequence": [
          {
            "CodeMeaning": "MRI Procedure Limited",
            "CodeValue": "MI01491",
            "CodingSchemeDesignator": "USA Standard",
            "ContextIdentifier": "4000111519"
          }
        ],
        "RequestingService": "MHED",
        "Rows": 768,
        "SAR": 0.07728754046703,
        "SamplesPerPixel": 1,
        "ScanningSequence": "EP",
        "SequenceName": "epfid2d1_96",
        "SequenceVariant": "SK",
        "SeriesDescription": "NIH_EPI_2.0iso_TR2_Run06",
        "SeriesNumber": 10,
        "SliceLocation": -41.959591880066,
        "SliceThickness": 2.0,
        "SmallestImagePixelValue": 0,
        "SoftwareVersions": "syngo MR B17",
        "SpacingBetweenSlices": 2.0000000184226,
        "TransmitCoilName": "32Ch_Head_7T",
        "VariableFlipAngleFlag": "N",
        "WindowCenterWidthExplanation": "Algo1",
        "dBdt": 0.0
      },
      "slices": {}
    },
    "modality": "bold",
    "run_id": 7,
    "session_id": "07",
    "subject_id": "002",
    "task_id": "FullFovNoAttentionTask",
    "time": {
      "samples": {
        "AcquisitionNumber": [
          1,
          2,
          3,
          4,
          5,
          6,
          7,
          8,
          9,
          10,
          11,
          12,
          13,
          14,
          15,
          16,
          17,
          18,
          19,
          20,
          21,
          22,
          23,
          24,
          25,
          26,
          27,
          28,
          29,
          30,
          31,
          32,
          33,
          34,
          35,
          36,
          37,
          38,
          39,
          40,
          41,
          42,
          43,
          44,
          45,
          46,
          47,
          48,
          49,
          50,
          51,
          52,
          53,
          54,
          55,
          56,
          57,
          58,
          59,
          60,
          61,
          62,
          63,
          64,
          65,
          66,
          67,
          68,
          69,
          70,
          71,
          72,
          73,
          74,
          75,
          76,
          77,
          78,
          79,
          80,
          81,
          82,
          83,
          84,
          85,
          86,
          87,
          88,
          89,
          90,
          91,
          92,
          93,
          94,
          95,
          96,
          97,
          98,
          99,
          100,
          101,
          102,
          103,
          104,
          105,
          106,
          107,
          108,
          109,
          110,
          111,
          112,
          113,
          114,
          115,
          116,
          117,
          118,
          119,
          120,
          121,
          122,
          123,
          124,
          125,
          126,
          127,
          128,
          129,
          130,
          131,
          132,
          133,
          134,
          135,
          136,
          137,
          138,
          139,
          140,
          141,
          142,
          143,
          144,
          145,
          146,
          147,
          148,
          149,
          150,
          151,
          152,
          153,
          154,
          155,
          156,
          157,
          158,
          159,
          160,
          161,
          162,
          163,
          164
        ],
        "AcquisitionTime": [
          "134351.292500",
          "134355.310000",
          "134357.317500",
          "134359.325000",
          "134401.332500",
          "134403.342500",
          "134405.350000",
          "134407.357500",
          "134409.365000",
          "134411.372500",
          "134413.382500",
          "134415.390000",
          "134417.397500",
          "134419.405000",
          "134421.415000",
          "134423.422500",
          "134425.430000",
          "134427.437500",
          "134429.445000",
          "134431.455000",
          "134433.462500",
          "134435.470000",
          "134437.477500",
          "134439.485000",
          "134441.495000",
          "134443.502500",
          "134445.510000",
          "134447.517500",
          "134449.525000",
          "134451.535000",
          "134453.542500",
          "134455.550000",
          "134457.557500",
          "134459.567500",
          "134501.575000",
          "134503.582500",
          "134505.590000",
          "134507.597500",
          "134509.607500",
          "134511.615000",
          "134513.622500",
          "134515.630000",
          "134517.637500",
          "134519.647500",
          "134521.655000",
          "134523.662500",
          "134525.670000",
          "134527.680000",
          "134529.687500",
          "134531.695000",
          "134533.702500",
          "134535.710000",
          "134537.720000",
          "134539.727500",
          "134541.735000",
          "134543.742500",
          "134545.750000",
          "134547.760000",
          "134549.767500",
          "134551.775000",
          "134553.782500",
          "134555.792500",
          "134557.800000",
          "134559.807500",
          "134601.815000",
          "134603.822500",
          "134605.832500",
          "134607.840000",
          "134609.847500",
          "134611.855000",
          "134613.862500",
          "134615.872500",
          "134617.880000",
          "134619.887500",
          "134621.895000",
          "134623.902500",
          "134625.912500",
          "134627.920000",
          "134629.927500",
          "134631.935000",
          "134633.945000",
          "134635.952500",
          "134637.960000",
          "134639.967500",
          "134641.975000",
          "134643.985000",
          "134645.992500",
          "134648.000000",
          "134650.007500",
          "134652.015000",
          "134654.025000",
          "134656.032500",
          "134658.040000",
          "134700.047500",
          "134702.057500",
          "134704.065000",
          "134706.072500",
          "134708.080000",
          "134710.087500",
          "134712.097500",
          "134714.105000",
          "134716.112500",
          "134718.120000",
          "134720.127500",
          "134722.137500",
          "134724.145000",
          "134726.152500",
          "134728.160000",
          "134730.170000",
          "134732.177500",
          "134734.185000",
          "134736.192500",
          "134738.200000",
          "134740.210000",
          "134742.217500",
          "134744.225000",
          "134746.232500",
          "134748.240000",
          "134750.250000",
          "134752.257500",
          "134754.265000",
          "134756.272500",
          "134758.280000",
          "134800.290000",
          "134802.297500",
          "134804.305000",
          "134806.312500",
          "134808.322500",
          "134810.330000",
          "134812.337500",
          "134814.345000",
          "134816.352500",
          "134818.362500",
          "134820.370000",
          "134822.377500",
          "134824.385000",
          "134826.392500",
          "134828.402500",
          "134830.410000",
          "134832.417500",
          "134834.425000",
          "134836.435000",
          "134838.442500",
          "134840.450000",
          "134842.457500",
          "134844.465000",
          "134846.475000",
          "134848.482500",
          "134850.490000",
          "134852.497500",
          "134854.505000",
          "134856.515000",
          "134858.522500",
          "134900.530000",
          "134902.537500",
          "134904.547500",
          "134906.555000",
          "134908.562500",
          "134910.570000",
          "134912.577500",
          "134914.587500",
          "134916.595000",
          "134918.602500",
          "134920.610000"
        ],
        "ContentTime": [
          "134436.171000",
          "134436.171000",
          "134436.187000",
          "134436.187000",
          "134436.187000",
          "134436.203000",
          "134436.203000",
          "134436.203000",
          "134436.203000",
          "134436.203000",
          "134436.203000",
          "134436.203000",
          "134436.218000",
          "134436.218000",
          "134436.218000",
          "134436.218000",
          "134436.218000",
          "134436.218000",
          "134436.218000",
          "134436.234000",
          "134436.234000",
          "134516.156000",
          "134516.171000",
          "134516.171000",
          "134516.171000",
          "134516.171000",
          "134516.171000",
          "134516.171000",
          "134516.187000",
          "134516.187000",
          "134516.187000",
          "134516.187000",
          "134516.187000",
          "134516.187000",
          "134516.187000",
          "134516.203000",
          "134516.203000",
          "134516.203000",
          "134516.203000",
          "134516.203000",
          "134516.203000",
          "134556.156000",
          "134556.171000",
          "134556.171000",
          "134556.171000",
          "134556.171000",
          "134556.171000",
          "134556.171000",
          "134556.171000",
          "134556.187000",
          "134556.187000",
          "134556.187000",
          "134556.187000",
          "134556.187000",
          "134556.187000",
          "134556.203000",
          "134556.203000",
          "134556.203000",
          "134556.203000",
          "134556.203000",
          "134556.203000",
          "134636.156000",
          "134636.171000",
          "134636.171000",
          "134636.171000",
          "134636.171000",
          "134636.171000",
          "134636.187000",
          "134636.187000",
          "134636.187000",
          "134636.187000",
          "134636.187000",
          "134636.203000",
          "134636.203000",
          "134636.203000",
          "134636.203000",
          "134636.203000",
          "134636.203000",
          "134636.218000",
          "134636.218000",
          "134636.218000",
          "134716.156000",
          "134716.171000",
          "134716.171000",
          "134716.171000",
          "134716.171000",
          "134716.187000",
          "134716.187000",
          "134716.187000",
          "134716.187000",
          "134716.187000",
          "134716.203000",
          "134716.203000",
          "134716.203000",
          "134716.203000",
          "134716.203000",
          "134716.203000",
          "134716.203000",
          "134716.218000",
          "134716.218000",
          "134716.218000",
          "134756.156000",
          "134756.171000",
          "134756.171000",
          "134756.171000",
          "134756.171000",
          "134756.187000",
          "134756.187000",
          "134756.187000",
          "134756.187000",
          "134756.187000",
          "134756.187000",
          "134756.203000",
          "134756.203000",
          "134756.203000",
          "134756.203000",
          "134756.203000",
          "134756.203000",
          "134756.218000",
          "134756.218000",
          "134756.218000",
          "134836.156000",
          "134836.171000",
          "134836.171000",
          "134836.171000",
          "134836.171000",
          "134836.171000",
          "134836.171000",
          "134836.187000",
          "134836.187000",
          "134836.187000",
          "134836.187000",
          "134836.187000",
          "134836.187000",
          "134836.187000",
          "134836.203000",
          "134836.203000",
          "134836.203000",
          "134836.203000",
          "134836.203000",
          "134836.203000",
          "134916.156000",
          "134916.171000",
          "134916.171000",
          "134916.171000",
          "134916.171000",
          "134916.171000",
          "134916.171000",
          "134916.187000",
          "134916.187000",
          "134916.203000",
          "134916.203000",
          "134916.203000",
          "134916.218000",
          "134916.218000",
          "134916.218000",
          "134916.218000",
          "134916.218000",
          "134916.218000",
          "134916.234000",
          "134916.234000",
          "134921.093000",
          "134921.093000",
          "134921.093000"
        ],
        "InstanceCreationTime": [
          "134436.171000",
          "134436.171000",
          "134436.187000",
          "134436.187000",
          "134436.187000",
          "134436.203000",
          "134436.203000",
          "134436.203000",
          "134436.203000",
          "134436.203000",
          "134436.203000",
          "134436.203000",
          "134436.218000",
          "134436.218000",
          "134436.218000",
          "134436.218000",
          "134436.218000",
          "134436.218000",
          "134436.218000",
          "134436.234000",
          "134436.234000",
          "134516.156000",
          "134516.171000",
          "134516.171000",
          "134516.171000",
          "134516.171000",
          "134516.171000",
          "134516.171000",
          "134516.187000",
          "134516.187000",
          "134516.187000",
          "134516.187000",
          "134516.187000",
          "134516.187000",
          "134516.187000",
          "134516.203000",
          "134516.203000",
          "134516.203000",
          "134516.203000",
          "134516.203000",
          "134516.203000",
          "134556.156000",
          "134556.171000",
          "134556.171000",
          "134556.171000",
          "134556.171000",
          "134556.171000",
          "134556.171000",
          "134556.171000",
          "134556.187000",
          "134556.187000",
          "134556.187000",
          "134556.187000",
          "134556.187000",
          "134556.187000",
          "134556.203000",
          "134556.203000",
          "134556.203000",
          "134556.203000",
          "134556.203000",
          "134556.203000",
          "134636.156000",
          "134636.171000",
          "134636.171000",
          "134636.171000",
          "134636.171000",
          "134636.171000",
          "134636.187000",
          "134636.187000",
          "134636.187000",
          "134636.187000",
          "134636.187000",
          "134636.203000",
          "134636.203000",
          "134636.203000",
          "134636.203000",
          "134636.203000",
          "134636.203000",
          "134636.218000",
          "134636.218000",
          "134636.218000",
          "134716.156000",
          "134716.171000",
          "134716.171000",
          "134716.171000",
          "134716.171000",
          "134716.187000",
          "134716.187000",
          "134716.187000",
          "134716.187000",
          "134716.187000",
          "134716.203000",
          "134716.203000",
          "134716.203000",
          "134716.203000",
          "134716.203000",
          "134716.203000",
          "134716.203000",
          "134716.218000",
          "134716.218000",
          "134716.218000",
          "134756.156000",
          "134756.171000",
          "134756.171000",
          "134756.171000",
          "134756.171000",
          "134756.187000",
          "134756.187000",
          "134756.187000",
          "134756.187000",
          "134756.187000",
          "134756.187000",
          "134756.203000",
          "134756.203000",
          "134756.203000",
          "134756.203000",
          "134756.203000",
          "134756.203000",
          "134756.218000",
          "134756.218000",
          "134756.218000",
          "134836.156000",
          "134836.171000",
          "134836.171000",
          "134836.171000",
          "134836.171000",
          "134836.171000",
          "134836.171000",
          "134836.187000",
          "134836.187000",
          "134836.187000",
          "134836.187000",
          "134836.187000",
          "134836.187000",
          "134836.187000",
          "134836.203000",
          "134836.203000",
          "134836.203000",
          "134836.203000",
          "134836.203000",
          "134836.203000",
          "134916.156000",
          "134916.171000",
          "134916.171000",
          "134916.171000",
          "134916.171000",
          "134916.171000",
          "134916.171000",
          "134916.187000",
          "134916.187000",
          "134916.203000",
          "134916.203000",
          "134916.203000",
          "134916.218000",
          "134916.218000",
          "134916.218000",
          "134916.218000",
          "134916.218000",
          "134916.218000",
          "134916.234000",
          "134916.234000",
          "134921.093000",
          "134921.093000",
          "134921.093000"
        ],
        "InstanceNumber": [
          1,
          2,
          3,
          4,
          5,
          6,
          7,
          8,
          9,
          10,
          11,
          12,
          13,
          14,
          15,
          16,
          17,
          18,
          19,
          20,
          21,
          22,
          23,
          24,
          25,
          26,
          27,
          28,
          29,
          30,
          31,
          32,
          33,
          34,
          35,
          36,
          37,
          38,
          39,
          40,
          41,
          42,
          43,
          44,
          45,
          46,
          47,
          48,
          49,
          50,
          51,
          52,
          53,
          54,
          55,
          56,
          57,
          58,
          59,
          60,
          61,
          62,
          63,
          64,
          65,
          66,
          67,
          68,
          69,
          70,
          71,
          72,
          73,
          74,
          75,
          76,
          77,
          78,
          79,
          80,
          81,
          82,
          83,
          84,
          85,
          86,
          87,
          88,
          89,
          90,
          91,
          92,
          93,
          94,
          95,
          96,
          97,
          98,
          99,
          100,
          101,
          102,
          103,
          104,
          105,
          106,
          107,
          108,
          109,
          110,
          111,
          112,
          113,
          114,
          115,
          116,
          117,
          118,
          119,
          120,
          121,
          122,
          123,
          124,
          125,
          126,
          127,
          128,
          129,
          130,
          131,
          132,
          133,
          134,
          135,
          136,
          137,
          138,
          139,
          140,
          141,
          142,
          143,
          144,
          145,
          146,
          147,
          148,
          149,
          150,
          151,
          152,
          153,
          154,
          155,
          156,
          157,
          158,
          159,
          160,
          161,
          162,
          163,
          164
        ],
        "WindowCenter": [
          1037.0,
          1035.0,
          1036.0,
          1039.0,
          1036.0,
          1034.0,
          1035.0,
          1034.0,
          1036.0,
          1038.0,
          1037.0,
          1035.0,
          1036.0,
          1037.0,
          1036.0,
          1035.0,
          1036.0,
          1036.0,
          1035.0,
          1036.0,
          1036.0,
          1037.0,
          1036.0,
          1035.0,
          1035.0,
          1038.0,
          1035.0,
          1034.0,
          1038.0,
          1039.0,
          1038.0,
          1036.0,
          1033.0,
          1035.0,
          1037.0,
          1036.0,
          1037.0,
          1036.0,
          1034.0,
          1036.0,
          1035.0,
          1035.0,
          1036.0,
          1034.0,
          1034.0,
          1037.0,
          1036.0,
          1037.0,
          1035.0,
          1034.0,
          1035.0,
          1036.0,
          1037.0,
          1036.0,
          1033.0,
          1033.0,
          1037.0,
          1036.0,
          1034.0,
          1035.0,
          1035.0,
          1035.0,
          1037.0,
          1035.0,
          1035.0,
          1036.0,
          1037.0,
          1037.0,
          1035.0,
          1034.0,
          1035.0,
          1036.0,
          1035.0,
          1037.0,
          1034.0,
          1034.0,
          1038.0,
          1038.0,
          1037.0,
          1036.0,
          1035.0,
          1038.0,
          1039.0,
          1035.0,
          1036.0,
          1036.0,
          1036.0,
          1038.0,
          1036.0,
          1034.0,
          1037.0,
          1038.0,
          1038.0,
          1036.0,
          1034.0,
          1036.0,
          1037.0,
          1036.0,
          1038.0,
          1036.0,
          1035.0,
          1036.0,
          1039.0,
          1037.0,
          1038.0,
          1038.0,
          1037.0,
          1039.0,
          1040.0,
          1040.0,
          1038.0,
          1039.0,
          1038.0,
          1039.0,
          1040.0,
          1036.0,
          1036.0,
          1037.0,
          1037.0,
          1038.0,
          1037.0,
          1039.0,
          1038.0,
          1039.0,
          1037.0,
          1037.0,
          1038.0,
          1036.0,
          1040.0,
          1039.0,
          1039.0,
          1037.0,
          1037.0,
          1039.0,
          1038.0,
          1036.0,
          1037.0,
          1036.0,
          1040.0,
          1038.0,
          1038.0,
          1036.0,
          1035.0,
          1039.0,
          1037.0,
          1039.0,
          1039.0,
          1037.0,
          1039.0,
          1040.0,
          1038.0,
          1037.0,
          1035.0,
          1037.0,
          1040.0,
          1038.0,
          1037.0,
          1037.0,
          1038.0,
          1036.0,
          1038.0,
          1041.0,
          1038.0,
          1038.0
        ],
        "WindowWidth": [
          2744.0,
          2735.0,
          2740.0,
          2748.0,
          2731.0,
          2723.0,
          2727.0,
          2727.0,
          2739.0,
          2740.0,
          2736.0,
          2729.0,
          2737.0,
          2747.0,
          2739.0,
          2733.0,
          2742.0,
          2733.0,
          2736.0,
          2733.0,
          2733.0,
          2741.0,
          2726.0,
          2722.0,
          2734.0,
          2743.0,
          2726.0,
          2726.0,
          2742.0,
          2745.0,
          2737.0,
          2725.0,
          2718.0,
          2732.0,
          2740.0,
          2730.0,
          2742.0,
          2731.0,
          2731.0,
          2738.0,
          2731.0,
          2737.0,
          2732.0,
          2724.0,
          2734.0,
          2741.0,
          2738.0,
          2738.0,
          2730.0,
          2725.0,
          2735.0,
          2734.0,
          2742.0,
          2739.0,
          2723.0,
          2723.0,
          2744.0,
          2738.0,
          2731.0,
          2737.0,
          2731.0,
          2738.0,
          2739.0,
          2735.0,
          2736.0,
          2739.0,
          2743.0,
          2739.0,
          2728.0,
          2727.0,
          2736.0,
          2732.0,
          2742.0,
          2734.0,
          2731.0,
          2737.0,
          2752.0,
          2739.0,
          2741.0,
          2728.0,
          2733.0,
          2750.0,
