{
  "aor": 0.0013389024390243903,
  "aqi": 0.0055516989634146335,
  "bids_meta": {
    "AcquisitionMatrixPE": 96,
    "AcquisitionNumber": 1,
    "AcquisitionTime": "14:09:12.260000",
    "BandwidthPerPixelPhaseEncode": 52.083,
    "BaseResolution": 96,
    "BodyPartExamined": "HEAD",
    "ConversionSoftware": "dcm2niix",
    "ConversionSoftwareVersion": "v1.0.20180622 GCC6.3.0",
    "DerivedVendorReportedEchoSpacing": 0.000600004,
    "DeviceSerialNumber": "18926",
    "DwellTime": 2.6e-06,
    "EchoTime": 0.025,
    "EffectiveEchoSpacing": 0.000200001,
    "FlipAngle": 50,
    "ImageOrientationPatientDICOM": [
      0.999992,
      0.00067012,
      0.00404905,
      2.11009e-10,
      0.98658,
      -0.16328
    ],
    "ImageType": [
      "ORIGINAL",
      "PRIMARY",
      "M",
      "ND",
      "ECHO",
      "00",
      "MOSAIC"
    ],
    "InPlanePhaseEncodingDirectionDICOM": "ROW",
    "InstitutionName": "NIMH",
    "InstitutionalDepartmentName": "Department",
    "MRAcquisitionType": "2D",
    "MagneticFieldStrength": 6.98,
    "Manufacturer": "Siemens",
    "ManufacturersModelName": "Investigational_Device_7T",
    "Modality": "MR",
    "ParallelReductionFactorInPlane": 3,
    "PartialFourier": 1,
    "PatientPosition": "HFS",
    "PercentPhaseFOV": 100,
    "PhaseEncodingDirection": "i",
    "PhaseEncodingSteps": 94,
    "PhaseResolution": 1,
    "PixelBandwidth": 2003,
    "ProcedureStepDescription": "MRI_Procedure_Limited",
    "ProtocolName": "NIH_EPI_2.0iso_TR2_Run10",
    "PulseSequenceDetails": "%CustomerSeq%_inati_nih_epi",
    "ReceiveCoilName": "32Ch_Head_7T",
    "ReconMatrixPE": 96,
    "RepetitionTime": 2,
    "SAR": 0.0772875,
    "ScanningSequence": "EP",
    "SequenceName": "epfid2d1_96",
    "SequenceVariant": "SK",
    "SeriesDescription": "NIH_EPI_2.0iso_TR2_Run10",
    "SeriesNumber": 14,
    "ShimSetting": [
      -82,
      284,
      1186,
      1731,
      -62,
      609,
      209,
      -258
    ],
    "SliceThickness": 2,
    "SliceTiming": [
      1.0025,
      0,
      1.04,
      0.0375,
      1.0775,
      0.075,
      1.115,
      0.11,
      1.1525,
      0.1475,
      1.19,
      0.185,
      1.2275,
      0.2225,
      1.2625,
      0.26,
      1.3,
      0.2975,
      1.3375,
      0.335,
      1.375,
      0.3725,
      1.4125,
      0.4075,
      1.45,
      0.445,
      1.4875,
      0.4825,
      1.525,
      0.52,
      1.56,
      0.5575,
      1.5975,
      0.595,
      1.635,
      0.6325,
      1.6725,
      0.67,
      1.71,
      0.705,
      1.7475,
      0.7425,
      1.785,
      0.78,
      1.8225,
      0.8175,
      1.8575,
      0.855,
      1.895,
      0.8925,
      1.9325,
      0.93,
      1.97,
      0.965
    ],
    "SoftwareVersions": "syngo_MR_B17",
    "SpacingBetweenSlices": 2,
    "StationName": "FMRIFD7T",
    "TaskName": "FullFovNoAttentionTask",
    "TotalReadoutTime": 0.0190001,
    "TxRefAmp": 279,
    "dataset": "ds001555",
    "dcmmeta_affine": [
      [
        -1.9999831914901733,
        4.2201880878778297e-10,
        0.008208253420889378,
        95.76705169677734
      ],
      [
        -0.0013402394251897931,
        1.973159670829773,
        -0.32655632495880127,
        -61.09407043457031
      ],
      [
        0.008098097518086433,
        0.32655906677246094,
        1.9731431007385254,
        -53.04020690917969
      ],
      [
        0.0,
        0.0,
        0.0,
        1.0
      ]
    ],
    "dcmmeta_reorient_transform": [
      [
        0.0,
        -1.0,
        0.0,
        95.0
      ],
      [
        1.0,
        0.0,
        0.0,
        0.0
      ],
      [
        0.0,
        0.0,
        1.0,
        0.0
      ],
      [
        0.0,
        0.0,
        0.0,
        1.0
      ]
    ],
    "dcmmeta_shape": [
      96,
      96,
      54,
      164
    ],
    "dcmmeta_slice_dim": 2,
    "dcmmeta_version": 0.6,
    "global": {
      "const": {
        "AcquisitionMatrix": [
          0,
          96,
          96,
          0
        ],
        "Allergies": "No Known Allergies",
        "AngioFlag": "N",
        "BitsAllocated": 16,
        "BitsStored": 12,
        "BodyPartExamined": "HEAD",
        "Columns": 768,
        "EchoNumbers": 1,
        "EchoTime": 25.0,
        "EchoTrainLength": 1,
        "FlipAngle": 50.0,
        "HighBit": 11,
        "ImageOrientationPatient": [
          0.99999157803662,
          0.00067011969073,
          0.00404904870684,
          2.110094e-10,
          0.98657984636313,
          -0.1632795356133
        ],
        "ImagePositionPatient": [
          -767.761392775,
          -789.78807875724,
          84.985791287915
        ],
        "ImageType": [
          "ORIGINAL",
          "PRIMARY",
          "M",
          "ND",
          "ECHO_00",
          "MOSAIC"
        ],
        "ImagedNucleus": "1H",
        "ImagingFrequency": 297.20516,
        "InPlanePhaseEncodingDirection": "ROW",
        "LargestImagePixelValue": 4095,
        "MRAcquisitionType": "2D",
        "MagneticFieldStrength": 6.98,
        "Manufacturer": "SIEMENS",
        "ManufacturerModelName": "Investigational_Device_7T",
        "Modality": "MR",
        "NumberOfAverages": 1.0,
        "NumberOfPhaseEncodingSteps": 94,
        "PercentPhaseFieldOfView": 100.0,
        "PercentSampling": 100.0,
        "PerformedProcedureStepStartTime": "125606.015000",
        "PhotometricInterpretation": "MONOCHROME2",
        "PixelBandwidth": 2003.0,
        "PixelRepresentation": 0,
        "PixelSpacing": [
          2.0,
          2.0
        ],
        "PositionReferenceIndicator": "",
        "ProcedureCodeSequence": [
          {
            "CodeMeaning": "MRI Procedure Limited",
            "CodeValue": "MI01491",
            "CodingSchemeDesignator": "USA Standard",
            "ContextIdentifier": "4000111519"
          }
        ],
        "ProtocolName": "NIH_EPI_2.0iso_TR2_Run10",
        "ReferencedStudySequence": [
          {
            "ReferencedSOPClassUID": "1.2.840.10008.3.1.2.3.1",
            "ReferencedSOPInstanceUID": "1.2.840.113564.9.1.2723958737.61.2.5000077300"
          }
        ],
        "RepetitionTime": 2000.0,
        "RequestedProcedureCodeSequence": [
          {
            "CodeMeaning": "MRI Procedure Limited",
            "CodeValue": "MI01491",
            "CodingSchemeDesignator": "USA Standard",
            "ContextIdentifier": "4000111519"
          }
        ],
        "RequestingService": "MHED",
        "Rows": 768,
        "SAR": 0.07728754046703,
        "SamplesPerPixel": 1,
        "ScanningSequence": "EP",
        "SequenceName": "epfid2d1_96",
        "SequenceVariant": "SK",
        "SeriesDescription": "NIH_EPI_2.0iso_TR2_Run10",
        "SeriesNumber": 14,
        "SliceLocation": -41.959591880066,
        "SliceThickness": 2.0,
        "SmallestImagePixelValue": 0,
        "SoftwareVersions": "syngo MR B17",
        "SpacingBetweenSlices": 2.0000000184226,
        "TransmitCoilName": "32Ch_Head_7T",
        "VariableFlipAngleFlag": "N",
        "WindowCenterWidthExplanation": "Algo1",
        "dBdt": 0.0
      },
      "slices": {}
    },
    "modality": "bold",
    "run_id": 11,
    "session_id": "07",
    "subject_id": "002",
    "task_id": "FullFovNoAttentionTask",
    "time": {
      "samples": {
        "AcquisitionNumber": [
          1,
          2,
          3,
          4,
          5,
          6,
          7,
          8,
          9,
          10,
          11,
          12,
          13,
          14,
          15,
          16,
          17,
          18,
          19,
          20,
          21,
          22,
          23,
          24,
          25,
          26,
          27,
          28,
          29,
          30,
          31,
          32,
          33,
          34,
          35,
          36,
          37,
          38,
          39,
          40,
          41,
          42,
          43,
          44,
          45,
          46,
          47,
          48,
          49,
          50,
          51,
          52,
          53,
          54,
          55,
          56,
          57,
          58,
          59,
          60,
          61,
          62,
          63,
          64,
          65,
          66,
          67,
          68,
          69,
          70,
          71,
          72,
          73,
          74,
          75,
          76,
          77,
          78,
          79,
          80,
          81,
          82,
          83,
          84,
          85,
          86,
          87,
          88,
          89,
          90,
          91,
          92,
          93,
          94,
          95,
          96,
          97,
          98,
          99,
          100,
          101,
          102,
          103,
          104,
          105,
          106,
          107,
          108,
          109,
          110,
          111,
          112,
          113,
          114,
          115,
          116,
          117,
          118,
          119,
          120,
          121,
          122,
          123,
          124,
          125,
          126,
          127,
          128,
          129,
          130,
          131,
          132,
          133,
          134,
          135,
          136,
          137,
          138,
          139,
          140,
          141,
          142,
          143,
          144,
          145,
          146,
          147,
          148,
          149,
          150,
          151,
          152,
          153,
          154,
          155,
          156,
          157,
          158,
          159,
          160,
          161,
          162,
          163,
          164
        ],
        "AcquisitionTime": [
          "140912.260000",
          "140916.277500",
          "140918.285000",
          "140920.292500",
          "140922.300000",
          "140924.310000",
          "140926.317500",
          "140928.325000",
          "140930.332500",
          "140932.340000",
          "140934.350000",
          "140936.357500",
          "140938.365000",
          "140940.372500",
          "140942.382500",
          "140944.390000",
          "140946.397500",
          "140948.405000",
          "140950.412500",
          "140952.422500",
          "140954.430000",
          "140956.437500",
          "140958.445000",
          "141000.452500",
          "141002.462500",
          "141004.470000",
          "141006.477500",
          "141008.485000",
          "141010.495000",
          "141012.502500",
          "141014.510000",
          "141016.517500",
          "141018.525000",
          "141020.535000",
          "141022.542500",
          "141024.550000",
          "141026.557500",
          "141028.565000",
          "141030.575000",
          "141032.582500",
          "141034.590000",
          "141036.597500",
          "141038.607500",
          "141040.615000",
          "141042.622500",
          "141044.630000",
          "141046.637500",
          "141048.647500",
          "141050.655000",
          "141052.662500",
          "141054.670000",
          "141056.677500",
          "141058.687500",
          "141100.695000",
          "141102.702500",
          "141104.710000",
          "141106.717500",
          "141108.727500",
          "141110.735000",
          "141112.742500",
          "141114.750000",
          "141116.760000",
          "141118.767500",
          "141120.775000",
          "141122.782500",
          "141124.790000",
          "141126.800000",
          "141128.807500",
          "141130.815000",
          "141132.822500",
          "141134.830000",
          "141136.840000",
          "141138.847500",
          "141140.855000",
          "141142.862500",
          "141144.872500",
          "141146.880000",
          "141148.887500",
          "141150.895000",
          "141152.902500",
          "141154.912500",
          "141156.920000",
          "141158.927500",
          "141200.935000",
          "141202.942500",
          "141204.952500",
          "141206.960000",
          "141208.967500",
          "141210.975000",
          "141212.985000",
          "141214.992500",
          "141217.000000",
          "141219.007500",
          "141221.015000",
          "141223.025000",
          "141225.032500",
          "141227.040000",
          "141229.047500",
          "141231.055000",
          "141233.065000",
          "141235.072500",
          "141237.080000",
          "141239.087500",
          "141241.095000",
          "141243.105000",
          "141245.112500",
          "141247.120000",
          "141249.127500",
          "141251.137500",
          "141253.145000",
          "141255.152500",
          "141257.160000",
          "141259.167500",
          "141301.177500",
          "141303.185000",
          "141305.192500",
          "141307.200000",
          "141309.207500",
          "141311.217500",
          "141313.225000",
          "141315.232500",
          "141317.240000",
          "141319.250000",
          "141321.257500",
          "141323.265000",
          "141325.272500",
          "141327.280000",
          "141329.290000",
          "141331.297500",
          "141333.305000",
          "141335.312500",
          "141337.320000",
          "141339.330000",
          "141341.337500",
          "141343.345000",
          "141345.352500",
          "141347.362500",
          "141349.370000",
          "141351.377500",
          "141353.385000",
          "141355.392500",
          "141357.402500",
          "141359.410000",
          "141401.417500",
          "141403.425000",
          "141405.432500",
          "141407.442500",
          "141409.450000",
          "141411.457500",
          "141413.465000",
          "141415.472500",
          "141417.482500",
          "141419.490000",
          "141421.497500",
          "141423.505000",
          "141425.515000",
          "141427.522500",
          "141429.530000",
          "141431.537500",
          "141433.545000",
          "141435.555000",
          "141437.562500",
          "141439.570000",
          "141441.577500"
        ],
        "ContentTime": [
          "140937.937000",
          "140937.953000",
          "140937.953000",
          "140937.953000",
          "140937.953000",
          "140937.953000",
          "140937.953000",
          "140937.968000",
          "140937.968000",
          "140937.968000",
          "140937.968000",
          "141017.937000",
          "141017.937000",
          "141017.937000",
          "141017.937000",
          "141017.937000",
          "141017.937000",
          "141017.953000",
          "141017.953000",
          "141017.953000",
          "141017.953000",
          "141017.953000",
          "141017.953000",
          "141017.968000",
          "141017.968000",
          "141017.968000",
          "141017.968000",
          "141017.968000",
          "141017.968000",
          "141017.984000",
          "141017.984000",
          "141017.984000",
          "141057.937000",
          "141057.937000",
          "141057.937000",
          "141057.937000",
          "141057.937000",
          "141057.953000",
          "141057.953000",
          "141057.953000",
          "141057.953000",
          "141057.953000",
          "141057.953000",
          "141057.968000",
          "141057.968000",
          "141057.968000",
          "141057.968000",
          "141057.968000",
          "141057.984000",
          "141057.984000",
          "141057.984000",
          "141057.984000",
          "141137.937000",
          "141137.937000",
          "141137.937000",
          "141137.937000",
          "141137.937000",
          "141137.937000",
          "141137.953000",
          "141137.953000",
          "141137.953000",
          "141137.968000",
          "141137.968000",
          "141137.968000",
          "141137.968000",
          "141137.968000",
          "141137.968000",
          "141137.984000",
          "141137.984000",
          "141137.984000",
          "141137.984000",
          "141138.000000",
          "141217.937000",
          "141217.953000",
          "141217.953000",
          "141217.953000",
          "141217.953000",
          "141217.953000",
          "141217.953000",
          "141217.968000",
          "141217.968000",
          "141217.968000",
          "141217.968000",
          "141217.984000",
          "141217.984000",
          "141217.984000",
          "141217.984000",
          "141218.000000",
          "141218.000000",
          "141218.000000",
          "141218.000000",
          "141218.000000",
          "141257.937000",
          "141257.937000",
          "141257.937000",
          "141257.953000",
          "141257.953000",
          "141257.953000",
          "141257.953000",
          "141257.953000",
          "141257.953000",
          "141257.968000",
          "141257.968000",
          "141257.968000",
          "141257.968000",
          "141257.968000",
          "141257.984000",
          "141257.984000",
          "141257.984000",
          "141257.984000",
          "141257.984000",
          "141257.984000",
          "141337.937000",
          "141337.937000",
          "141337.937000",
          "141337.937000",
          "141337.937000",
          "141337.937000",
          "141337.953000",
          "141337.953000",
          "141337.953000",
          "141337.953000",
          "141337.953000",
          "141337.953000",
          "141337.968000",
          "141337.968000",
          "141337.968000",
          "141337.968000",
          "141337.968000",
          "141337.968000",
          "141337.968000",
          "141337.984000",
          "141417.937000",
          "141417.937000",
          "141417.937000",
          "141417.937000",
          "141417.953000",
          "141417.953000",
          "141417.953000",
          "141417.953000",
          "141417.953000",
          "141417.953000",
          "141417.968000",
          "141417.968000",
          "141417.968000",
          "141417.968000",
          "141417.968000",
          "141417.984000",
          "141417.984000",
          "141417.984000",
          "141417.984000",
          "141418.000000",
          "141441.468000",
          "141441.468000",
          "141441.484000",
          "141441.484000",
          "141441.484000",
          "141441.484000",
          "141441.484000",
          "141441.484000",
          "141441.484000",
          "141441.500000",
          "141441.500000",
          "141441.500000"
        ],
        "InstanceCreationTime": [
          "140937.937000",
          "140937.953000",
          "140937.953000",
          "140937.953000",
          "140937.953000",
          "140937.953000",
          "140937.953000",
          "140937.968000",
          "140937.968000",
          "140937.968000",
          "140937.968000",
          "141017.937000",
          "141017.937000",
          "141017.937000",
          "141017.937000",
          "141017.937000",
          "141017.937000",
          "141017.953000",
          "141017.953000",
          "141017.953000",
          "141017.953000",
          "141017.953000",
          "141017.953000",
          "141017.968000",
          "141017.968000",
          "141017.968000",
          "141017.968000",
          "141017.968000",
          "141017.968000",
          "141017.984000",
          "141017.984000",
          "141017.984000",
          "141057.937000",
          "141057.937000",
          "141057.937000",
          "141057.937000",
          "141057.937000",
          "141057.953000",
          "141057.953000",
          "141057.953000",
          "141057.953000",
          "141057.953000",
          "141057.953000",
          "141057.968000",
          "141057.968000",
          "141057.968000",
          "141057.968000",
          "141057.968000",
          "141057.984000",
          "141057.984000",
          "141057.984000",
          "141057.984000",
          "141137.937000",
          "141137.937000",
          "141137.937000",
          "141137.937000",
          "141137.937000",
          "141137.937000",
          "141137.953000",
          "141137.953000",
          "141137.953000",
          "141137.968000",
          "141137.968000",
          "141137.968000",
          "141137.968000",
          "141137.968000",
          "141137.968000",
          "141137.984000",
          "141137.984000",
          "141137.984000",
          "141137.984000",
          "141138.000000",
          "141217.937000",
          "141217.953000",
          "141217.953000",
          "141217.953000",
          "141217.953000",
          "141217.953000",
          "141217.953000",
          "141217.968000",
          "141217.968000",
          "141217.968000",
          "141217.968000",
          "141217.984000",
          "141217.984000",
          "141217.984000",
          "141217.984000",
          "141218.000000",
          "141218.000000",
          "141218.000000",
          "141218.000000",
          "141218.000000",
          "141257.937000",
          "141257.937000",
          "141257.937000",
          "141257.953000",
          "141257.953000",
          "141257.953000",
          "141257.953000",
          "141257.953000",
          "141257.953000",
          "141257.968000",
          "141257.968000",
          "141257.968000",
          "141257.968000",
          "141257.968000",
          "141257.984000",
          "141257.984000",
          "141257.984000",
          "141257.984000",
          "141257.984000",
          "141257.984000",
          "141337.937000",
          "141337.937000",
          "141337.937000",
          "141337.937000",
          "141337.937000",
          "141337.937000",
          "141337.953000",
          "141337.953000",
          "141337.953000",
          "141337.953000",
          "141337.953000",
          "141337.953000",
          "141337.968000",
          "141337.968000",
          "141337.968000",
          "141337.968000",
          "141337.968000",
          "141337.968000",
          "141337.968000",
          "141337.984000",
          "141417.937000",
          "141417.937000",
          "141417.937000",
          "141417.937000",
          "141417.953000",
          "141417.953000",
          "141417.953000",
          "141417.953000",
          "141417.953000",
          "141417.953000",
          "141417.968000",
          "141417.968000",
          "141417.968000",
          "141417.968000",
          "141417.968000",
          "141417.984000",
          "141417.984000",
          "141417.984000",
          "141417.984000",
          "141418.000000",
          "141441.468000",
          "141441.468000",
          "141441.484000",
          "141441.484000",
          "141441.484000",
          "141441.484000",
          "141441.484000",
          "141441.484000",
          "141441.484000",
          "141441.500000",
          "141441.500000",
          "141441.500000"
        ],
        "InstanceNumber": [
          1,
          2,
          3,
          4,
          5,
          6,
          7,
          8,
          9,
          10,
          11,
          12,
          13,
          14,
          15,
          16,
          17,
          18,
          19,
          20,
          21,
          22,
          23,
          24,
          25,
          26,
          27,
          28,
          29,
          30,
          31,
          32,
          33,
          34,
          35,
          36,
          37,
          38,
          39,
          40,
          41,
          42,
          43,
          44,
          45,
          46,
          47,
          48,
          49,
          50,
          51,
          52,
          53,
          54,
          55,
          56,
          57,
          58,
          59,
          60,
          61,
          62,
          63,
          64,
          65,
          66,
          67,
          68,
          69,
          70,
          71,
          72,
          73,
          74,
          75,
          76,
          77,
          78,
          79,
          80,
          81,
          82,
          83,
          84,
          85,
          86,
          87,
          88,
          89,
          90,
          91,
          92,
          93,
          94,
          95,
          96,
          97,
          98,
          99,
          100,
          101,
          102,
          103,
          104,
          105,
          106,
          107,
          108,
          109,
          110,
          111,
          112,
          113,
          114,
          115,
          116,
          117,
          118,
          119,
          120,
          121,
          122,
          123,
          124,
          125,
          126,
          127,
          128,
          129,
          130,
          131,
          132,
          133,
          134,
          135,
          136,
          137,
          138,
          139,
          140,
          141,
          142,
          143,
          144,
          145,
          146,
          147,
          148,
          149,
          150,
          151,
          152,
          153,
          154,
          155,
          156,
          157,
          158,
          159,
          160,
          161,
          162,
          163,
          164
        ],
        "WindowCenter": [
          1034.0,
          1036.0,
          1035.0,
          1033.0,
          1033.0,
          1034.0,
          1035.0,
          1033.0,
          1034.0,
          1033.0,
          1034.0,
          1035.0,
          1035.0,
          1033.0,
          1033.0,
          1034.0,
          1035.0,
          1037.0,
          1034.0,
          1034.0,
          1034.0,
          1034.0,
          1033.0,
          1033.0,
          1035.0,
          1034.0,
          1032.0,
          1032.0,
          1033.0,
          1033.0,
          1033.0,
          1033.0,
          1034.0,
          1036.0,
          1034.0,
          1036.0,
          1033.0,
          1035.0,
          1034.0,
          1032.0,
          1034.0,
          1034.0,
          1034.0,
          1034.0,
          1033.0,
          1036.0,
          1034.0,
          1033.0,
          1035.0,
          1036.0,
          1036.0,
          1033.0,
          1032.0,
          1033.0,
          1034.0,
          1035.0,
          1035.0,
          1034.0,
          1034.0,
          1033.0,
          1033.0,
          1035.0,
          1036.0,
          1037.0,
          1037.0,
          1036.0,
          1036.0,
          1036.0,
          1038.0,
          1035.0,
          1032.0,
          1033.0,
          1034.0,
          1035.0,
          1034.0,
          1033.0,
          1035.0,
          1036.0,
          1034.0,
          1033.0,
          1037.0,
          1038.0,
          1035.0,
          1034.0,
          1037.0,
          1035.0,
          1036.0,
          1035.0,
          1035.0,
          1035.0,
          1035.0,
          1036.0,
          1035.0,
          1035.0,
          1033.0,
          1036.0,
          1040.0,
          1037.0,
          1035.0,
          1036.0,
          1036.0,
          1036.0,
          1036.0,
          1036.0,
          1036.0,
          1035.0,
          1034.0,
          1037.0,
          1036.0,
          1035.0,
          1035.0,
          1035.0,
          1035.0,
          1035.0,
          1036.0,
          1034.0,
          1035.0,
          1034.0,
          1035.0,
          1035.0,
          1035.0,
          1036.0,
          1035.0,
          1035.0,
          1035.0,
          1035.0,
          1034.0,
          1035.0,
          1034.0,
          1035.0,
          1035.0,
          1034.0,
          1035.0,
          1035.0,
          1035.0,
          1035.0,
          1035.0,
          1035.0,
          1036.0,
          1035.0,
          1036.0,
          1037.0,
          1039.0,
          1037.0,
          1034.0,
          1034.0,
          1035.0,
          1035.0,
          1034.0,
          1033.0,
          1035.0,
          1035.0,
          1035.0,
          1034.0,
          1035.0,
          1035.0,
          1037.0,
          1036.0,
          1035.0,
          1034.0,
          1035.0,
          1037.0,
          1036.0,
          1036.0
        ],
        "WindowWidth": [
          2730.0,
          2739.0,
          2728.0,
          2729.0,
          2729.0,
          2732.0,
          2729.0,
          2720.0,
          2729.0,
          2722.0,
          2726.0,
          2726.0,
          2727.0,
          2722.0,
          2725.0,
          2735.0,
          2732.0,
          2739.0,
          2728.0,
          2731.0,
          2724.0,
          2725.0,
          2730.0,
          2727.0,
          2739.0,
          2723.0,
          2722.0,
          2721.0,
          2727.0,
          2725.0,
          2725.0,
          2723.0,
          2726.0,
          2728.0,
          2729.0,
          2741.0,
          2729.0,
          2733.0,
          2728.0,
          2721.0,
          2737.0,
          2730.0,
          2728.0,
          2730.0,
          2727.0,
          2738.0,
          2729.0,
          2729.0,
          2737.0,
          2741.0,
          2740.0,
          2726.0,
          2725.0,
          2726.0,
          2734.0,
          2733.0,
          2735.0,
          2730.0,
          2733.0,
          2726.0,
          2732.0,
          2732.0,
          2739.0,
          2739.0,
          2741.0,
          2730.0,
          2741.0,
          2744.0,
          2749.0,
          2729.0,
          2720.0,
          2732.0,
          2731.0,
          2730.0,
          2725.0,
          2730.0,
          2734.0,
          2735.0,
          2723.0,
          2731.0,
          2743.0,
          2745.0,
