{
  "aor": 0.0008867073170731707,
  "aqi": 0.0034479923780487798,
  "bids_meta": {
    "AcquisitionMatrixPE": 96,
    "AcquisitionNumber": 1,
    "AcquisitionTime": "14:15:27.550000",
    "BandwidthPerPixelPhaseEncode": 52.083,
    "BaseResolution": 96,
    "BodyPartExamined": "HEAD",
    "ConversionSoftware": "dcm2niix",
    "ConversionSoftwareVersion": "v1.0.20180622 GCC6.3.0",
    "DerivedVendorReportedEchoSpacing": 0.000600004,
    "DeviceSerialNumber": "18926",
    "DwellTime": 2.6e-06,
    "EchoTime": 0.025,
    "EffectiveEchoSpacing": 0.000200001,
    "FlipAngle": 50,
    "ImageOrientationPatientDICOM": [
      0.999992,
      0.00067012,
      0.00404905,
      2.11009e-10,
      0.98658,
      -0.16328
    ],
    "ImageType": [
      "ORIGINAL",
      "PRIMARY",
      "M",
      "ND",
      "ECHO",
      "00",
      "MOSAIC"
    ],
    "InPlanePhaseEncodingDirectionDICOM": "ROW",
    "InstitutionName": "NIMH",
    "InstitutionalDepartmentName": "Department",
    "MRAcquisitionType": "2D",
    "MagneticFieldStrength": 6.98,
    "Manufacturer": "Siemens",
    "ManufacturersModelName": "Investigational_Device_7T",
    "Modality": "MR",
    "ParallelReductionFactorInPlane": 3,
    "PartialFourier": 1,
    "PatientPosition": "HFS",
    "PercentPhaseFOV": 100,
    "PhaseEncodingDirection": "i",
    "PhaseEncodingSteps": 94,
    "PhaseResolution": 1,
    "PixelBandwidth": 2003,
    "ProcedureStepDescription": "MRI_Procedure_Limited",
    "ProtocolName": "NIH_EPI_2.0iso_TR2_Run11",
    "PulseSequenceDetails": "%CustomerSeq%_inati_nih_epi",
    "ReceiveCoilName": "32Ch_Head_7T",
    "ReconMatrixPE": 96,
    "RepetitionTime": 2,
    "SAR": 0.0772875,
    "ScanningSequence": "EP",
    "SequenceName": "epfid2d1_96",
    "SequenceVariant": "SK",
    "SeriesDescription": "NIH_EPI_2.0iso_TR2_Run11",
    "SeriesNumber": 15,
    "ShimSetting": [
      -82,
      284,
      1186,
      1731,
      -62,
      609,
      209,
      -258
    ],
    "SliceThickness": 2,
    "SliceTiming": [
      1.005,
      0,
      1.0425,
      0.0375,
      1.0775,
      0.075,
      1.115,
      0.1125,
      1.1525,
      0.15,
      1.19,
      0.185,
      1.2275,
      0.2225,
      1.265,
      0.26,
      1.3025,
      0.2975,
      1.34,
      0.335,
      1.375,
      0.3725,
      1.4125,
      0.41,
      1.45,
      0.4475,
      1.4875,
      0.4825,
      1.525,
      0.52,
      1.5625,
      0.5575,
      1.6,
      0.595,
      1.635,
      0.6325,
      1.6725,
      0.67,
      1.71,
      0.7075,
      1.7475,
      0.745,
      1.785,
      0.78,
      1.8225,
      0.8175,
      1.86,
      0.855,
      1.8975,
      0.8925,
      1.9325,
      0.93,
      1.97,
      0.9675
    ],
    "SoftwareVersions": "syngo_MR_B17",
    "SpacingBetweenSlices": 2,
    "StationName": "FMRIFD7T",
    "TaskName": "FullFovNoAttentionTask",
    "TotalReadoutTime": 0.0190001,
    "TxRefAmp": 279,
    "dataset": "ds001555",
    "dcmmeta_affine": [
      [
        -1.9999831914901733,
        4.2201880878778297e-10,
        0.008208253420889378,
        95.76705169677734
      ],
      [
        -0.0013402394251897931,
        1.973159670829773,
        -0.32655632495880127,
        -61.09407043457031
      ],
      [
        0.008098097518086433,
        0.32655906677246094,
        1.9731431007385254,
        -53.04020690917969
      ],
      [
        0.0,
        0.0,
        0.0,
        1.0
      ]
    ],
    "dcmmeta_reorient_transform": [
      [
        0.0,
        -1.0,
        0.0,
        95.0
      ],
      [
        1.0,
        0.0,
        0.0,
        0.0
      ],
      [
        0.0,
        0.0,
        1.0,
        0.0
      ],
      [
        0.0,
        0.0,
        0.0,
        1.0
      ]
    ],
    "dcmmeta_shape": [
      96,
      96,
      54,
      164
    ],
    "dcmmeta_slice_dim": 2,
    "dcmmeta_version": 0.6,
    "global": {
      "const": {
        "AcquisitionMatrix": [
          0,
          96,
          96,
          0
        ],
        "Allergies": "No Known Allergies",
        "AngioFlag": "N",
        "BitsAllocated": 16,
        "BitsStored": 12,
        "BodyPartExamined": "HEAD",
        "Columns": 768,
        "EchoNumbers": 1,
        "EchoTime": 25.0,
        "EchoTrainLength": 1,
        "FlipAngle": 50.0,
        "HighBit": 11,
        "ImageOrientationPatient": [
          0.99999157803662,
          0.00067011969073,
          0.00404904870684,
          2.110094e-10,
          0.98657984636313,
          -0.1632795356133
        ],
        "ImagePositionPatient": [
          -767.761392775,
          -789.78807875724,
          84.985791287915
        ],
        "ImageType": [
          "ORIGINAL",
          "PRIMARY",
          "M",
          "ND",
          "ECHO_00",
          "MOSAIC"
        ],
        "ImagedNucleus": "1H",
        "ImagingFrequency": 297.205177,
        "InPlanePhaseEncodingDirection": "ROW",
        "LargestImagePixelValue": 4095,
        "MRAcquisitionType": "2D",
        "MagneticFieldStrength": 6.98,
        "Manufacturer": "SIEMENS",
        "ManufacturerModelName": "Investigational_Device_7T",
        "Modality": "MR",
        "NumberOfAverages": 1.0,
        "NumberOfPhaseEncodingSteps": 94,
        "PercentPhaseFieldOfView": 100.0,
        "PercentSampling": 100.0,
        "PerformedProcedureStepStartTime": "125606.015000",
        "PhotometricInterpretation": "MONOCHROME2",
        "PixelBandwidth": 2003.0,
        "PixelRepresentation": 0,
        "PixelSpacing": [
          2.0,
          2.0
        ],
        "PositionReferenceIndicator": "",
        "ProcedureCodeSequence": [
          {
            "CodeMeaning": "MRI Procedure Limited",
            "CodeValue": "MI01491",
            "CodingSchemeDesignator": "USA Standard",
            "ContextIdentifier": "4000111519"
          }
        ],
        "ProtocolName": "NIH_EPI_2.0iso_TR2_Run11",
        "ReferencedStudySequence": [
          {
            "ReferencedSOPClassUID": "1.2.840.10008.3.1.2.3.1",
            "ReferencedSOPInstanceUID": "1.2.840.113564.9.1.2723958737.61.2.5000077300"
          }
        ],
        "RepetitionTime": 2000.0,
        "RequestedProcedureCodeSequence": [
          {
            "CodeMeaning": "MRI Procedure Limited",
            "CodeValue": "MI01491",
            "CodingSchemeDesignator": "USA Standard",
            "ContextIdentifier": "4000111519"
          }
        ],
        "RequestingService": "MHED",
        "Rows": 768,
        "SAR": 0.07728754046703,
        "SamplesPerPixel": 1,
        "ScanningSequence": "EP",
        "SequenceName": "epfid2d1_96",
        "SequenceVariant": "SK",
        "SeriesDescription": "NIH_EPI_2.0iso_TR2_Run11",
        "SeriesNumber": 15,
        "SliceLocation": -41.959591880066,
        "SliceThickness": 2.0,
        "SmallestImagePixelValue": 0,
        "SoftwareVersions": "syngo MR B17",
        "SpacingBetweenSlices": 2.0000000184226,
        "TransmitCoilName": "32Ch_Head_7T",
        "VariableFlipAngleFlag": "N",
        "WindowCenterWidthExplanation": "Algo1",
        "dBdt": 0.0
      },
      "slices": {}
    },
    "modality": "bold",
    "run_id": 12,
    "session_id": "07",
    "subject_id": "002",
    "task_id": "FullFovNoAttentionTask",
    "time": {
      "samples": {
        "AcquisitionNumber": [
          1,
          2,
          3,
          4,
          5,
          6,
          7,
          8,
          9,
          10,
          11,
          12,
          13,
          14,
          15,
          16,
          17,
          18,
          19,
          20,
          21,
          22,
          23,
          24,
          25,
          26,
          27,
          28,
          29,
          30,
          31,
          32,
          33,
          34,
          35,
          36,
          37,
          38,
          39,
          40,
          41,
          42,
          43,
          44,
          45,
          46,
          47,
          48,
          49,
          50,
          51,
          52,
          53,
          54,
          55,
          56,
          57,
          58,
          59,
          60,
          61,
          62,
          63,
          64,
          65,
          66,
          67,
          68,
          69,
          70,
          71,
          72,
          73,
          74,
          75,
          76,
          77,
          78,
          79,
          80,
          81,
          82,
          83,
          84,
          85,
          86,
          87,
          88,
          89,
          90,
          91,
          92,
          93,
          94,
          95,
          96,
          97,
          98,
          99,
          100,
          101,
          102,
          103,
          104,
          105,
          106,
          107,
          108,
          109,
          110,
          111,
          112,
          113,
          114,
          115,
          116,
          117,
          118,
          119,
          120,
          121,
          122,
          123,
          124,
          125,
          126,
          127,
          128,
          129,
          130,
          131,
          132,
          133,
          134,
          135,
          136,
          137,
          138,
          139,
          140,
          141,
          142,
          143,
          144,
          145,
          146,
          147,
          148,
          149,
          150,
          151,
          152,
          153,
          154,
          155,
          156,
          157,
          158,
          159,
          160,
          161,
          162,
          163,
          164
        ],
        "AcquisitionTime": [
          "141527.550000",
          "141531.565000",
          "141533.572500",
          "141535.582500",
          "141537.590000",
          "141539.597500",
          "141541.605000",
          "141543.612500",
          "141545.622500",
          "141547.630000",
          "141549.637500",
          "141551.645000",
          "141553.652500",
          "141555.662500",
          "141557.670000",
          "141559.677500",
          "141601.685000",
          "141603.695000",
          "141605.702500",
          "141607.710000",
          "141609.717500",
          "141611.725000",
          "141613.735000",
          "141615.742500",
          "141617.750000",
          "141619.757500",
          "141621.765000",
          "141623.775000",
          "141625.782500",
          "141627.790000",
          "141629.797500",
          "141631.805000",
          "141633.815000",
          "141635.822500",
          "141637.830000",
          "141639.837500",
          "141641.847500",
          "141643.855000",
          "141645.862500",
          "141647.870000",
          "141649.877500",
          "141651.887500",
          "141653.895000",
          "141655.902500",
          "141657.910000",
          "141659.917500",
          "141701.927500",
          "141703.935000",
          "141705.942500",
          "141707.950000",
          "141709.960000",
          "141711.967500",
          "141713.975000",
          "141715.982500",
          "141717.990000",
          "141720.000000",
          "141722.007500",
          "141724.015000",
          "141726.022500",
          "141728.030000",
          "141730.040000",
          "141732.047500",
          "141734.055000",
          "141736.062500",
          "141738.072500",
          "141740.080000",
          "141742.087500",
          "141744.095000",
          "141746.102500",
          "141748.112500",
          "141750.120000",
          "141752.127500",
          "141754.135000",
          "141756.142500",
          "141758.152500",
          "141800.160000",
          "141802.167500",
          "141804.175000",
          "141806.182500",
          "141808.192500",
          "141810.200000",
          "141812.207500",
          "141814.215000",
          "141816.225000",
          "141818.232500",
          "141820.240000",
          "141822.247500",
          "141824.255000",
          "141826.265000",
          "141828.272500",
          "141830.280000",
          "141832.287500",
          "141834.295000",
          "141836.305000",
          "141838.312500",
          "141840.320000",
          "141842.327500",
          "141844.337500",
          "141846.345000",
          "141848.352500",
          "141850.360000",
          "141852.367500",
          "141854.377500",
          "141856.385000",
          "141858.392500",
          "141900.400000",
          "141902.407500",
          "141904.417500",
          "141906.425000",
          "141908.432500",
          "141910.440000",
          "141912.450000",
          "141914.457500",
          "141916.465000",
          "141918.472500",
          "141920.480000",
          "141922.490000",
          "141924.497500",
          "141926.505000",
          "141928.512500",
          "141930.520000",
          "141932.530000",
          "141934.537500",
          "141936.545000",
          "141938.552500",
          "141940.560000",
          "141942.570000",
          "141944.577500",
          "141946.585000",
          "141948.592500",
          "141950.602500",
          "141952.610000",
          "141954.617500",
          "141956.625000",
          "141958.632500",
          "142000.642500",
          "142002.650000",
          "142004.657500",
          "142006.665000",
          "142008.672500",
          "142010.682500",
          "142012.690000",
          "142014.697500",
          "142016.705000",
          "142018.715000",
          "142020.722500",
          "142022.730000",
          "142024.737500",
          "142026.745000",
          "142028.755000",
          "142030.762500",
          "142032.770000",
          "142034.777500",
          "142036.785000",
          "142038.795000",
          "142040.802500",
          "142042.810000",
          "142044.817500",
          "142046.827500",
          "142048.835000",
          "142050.842500",
          "142052.850000",
          "142054.857500",
          "142056.867500"
        ],
        "ContentTime": [
          "141623.640000",
          "141623.656000",
          "141623.656000",
          "141623.656000",
          "141623.656000",
          "141623.656000",
          "141623.656000",
          "141623.671000",
          "141623.671000",
          "141623.671000",
          "141623.671000",
          "141623.671000",
          "141623.671000",
          "141623.687000",
          "141623.687000",
          "141623.687000",
          "141623.687000",
          "141623.687000",
          "141623.687000",
          "141623.687000",
          "141623.703000",
          "141623.703000",
          "141623.703000",
          "141623.703000",
          "141623.703000",
          "141623.718000",
          "141623.718000",
          "141703.640000",
          "141703.640000",
          "141703.640000",
          "141703.640000",
          "141703.640000",
          "141703.640000",
          "141703.656000",
          "141703.656000",
          "141703.656000",
          "141703.656000",
          "141703.656000",
          "141703.656000",
          "141703.656000",
          "141703.671000",
          "141703.671000",
          "141703.671000",
          "141703.671000",
          "141703.671000",
          "141703.671000",
          "141703.687000",
          "141743.640000",
          "141743.640000",
          "141743.640000",
          "141743.640000",
          "141743.640000",
          "141743.640000",
          "141743.656000",
          "141743.656000",
          "141743.656000",
          "141743.656000",
          "141743.656000",
          "141743.656000",
          "141743.671000",
          "141743.671000",
          "141743.671000",
          "141743.687000",
          "141743.687000",
          "141743.687000",
          "141743.687000",
          "141743.687000",
          "141823.640000",
          "141823.640000",
          "141823.640000",
          "141823.640000",
          "141823.640000",
          "141823.640000",
          "141823.656000",
          "141823.656000",
          "141823.656000",
          "141823.656000",
          "141823.671000",
          "141823.671000",
          "141823.671000",
          "141823.671000",
          "141823.671000",
          "141823.671000",
          "141823.671000",
          "141823.687000",
          "141823.687000",
          "141823.687000",
          "141903.640000",
          "141903.640000",
          "141903.640000",
          "141903.640000",
          "141903.640000",
          "141903.640000",
          "141903.656000",
          "141903.656000",
          "141903.656000",
          "141903.656000",
          "141903.656000",
          "141903.671000",
          "141903.671000",
          "141903.671000",
          "141903.671000",
          "141903.671000",
          "141903.671000",
          "141903.687000",
          "141903.687000",
          "141903.687000",
          "141923.640000",
          "141923.640000",
          "141923.640000",
          "141923.640000",
          "141923.640000",
          "141923.640000",
          "141923.656000",
          "141923.656000",
          "141923.656000",
          "141923.656000",
          "142003.640000",
          "142003.640000",
          "142003.640000",
          "142003.640000",
          "142003.640000",
          "142003.656000",
          "142003.656000",
          "142003.656000",
          "142003.656000",
          "142003.671000",
          "142003.671000",
          "142003.671000",
          "142003.671000",
          "142003.671000",
          "142003.687000",
          "142003.687000",
          "142003.703000",
          "142003.703000",
          "142003.703000",
          "142003.703000",
          "142043.640000",
          "142043.640000",
          "142043.640000",
          "142043.640000",
          "142043.656000",
          "142043.656000",
          "142043.656000",
          "142043.656000",
          "142043.656000",
          "142043.656000",
          "142043.671000",
          "142043.671000",
          "142043.671000",
          "142043.671000",
          "142043.671000",
          "142043.671000",
          "142043.687000",
          "142043.687000",
          "142043.687000",
          "142043.687000",
          "142056.656000",
          "142056.656000",
          "142056.656000",
          "142056.656000",
          "142056.656000",
          "142056.656000",
          "142056.671000"
        ],
        "InstanceCreationTime": [
          "141623.640000",
          "141623.656000",
          "141623.656000",
          "141623.656000",
          "141623.656000",
          "141623.656000",
          "141623.656000",
          "141623.671000",
          "141623.671000",
          "141623.671000",
          "141623.671000",
          "141623.671000",
          "141623.671000",
          "141623.687000",
          "141623.687000",
          "141623.687000",
          "141623.687000",
          "141623.687000",
          "141623.687000",
          "141623.687000",
          "141623.703000",
          "141623.703000",
          "141623.703000",
          "141623.703000",
          "141623.703000",
          "141623.718000",
          "141623.718000",
          "141703.640000",
          "141703.640000",
          "141703.640000",
          "141703.640000",
          "141703.640000",
          "141703.640000",
          "141703.656000",
          "141703.656000",
          "141703.656000",
          "141703.656000",
          "141703.656000",
          "141703.656000",
          "141703.656000",
          "141703.671000",
          "141703.671000",
          "141703.671000",
          "141703.671000",
          "141703.671000",
          "141703.671000",
          "141703.687000",
          "141743.640000",
          "141743.640000",
          "141743.640000",
          "141743.640000",
          "141743.640000",
          "141743.640000",
          "141743.656000",
          "141743.656000",
          "141743.656000",
          "141743.656000",
          "141743.656000",
          "141743.656000",
          "141743.671000",
          "141743.671000",
          "141743.671000",
          "141743.687000",
          "141743.687000",
          "141743.687000",
          "141743.687000",
          "141743.687000",
          "141823.640000",
          "141823.640000",
          "141823.640000",
          "141823.640000",
          "141823.640000",
          "141823.640000",
          "141823.656000",
          "141823.656000",
          "141823.656000",
          "141823.656000",
          "141823.671000",
          "141823.671000",
          "141823.671000",
          "141823.671000",
          "141823.671000",
          "141823.671000",
          "141823.671000",
          "141823.687000",
          "141823.687000",
          "141823.687000",
          "141903.640000",
          "141903.640000",
          "141903.640000",
          "141903.640000",
          "141903.640000",
          "141903.640000",
          "141903.656000",
          "141903.656000",
          "141903.656000",
          "141903.656000",
          "141903.656000",
          "141903.671000",
          "141903.671000",
          "141903.671000",
          "141903.671000",
          "141903.671000",
          "141903.671000",
          "141903.687000",
          "141903.687000",
          "141903.687000",
          "141923.640000",
          "141923.640000",
          "141923.640000",
          "141923.640000",
          "141923.640000",
          "141923.640000",
          "141923.656000",
          "141923.656000",
          "141923.656000",
          "141923.656000",
          "142003.640000",
          "142003.640000",
          "142003.640000",
          "142003.640000",
          "142003.640000",
          "142003.656000",
          "142003.656000",
          "142003.656000",
          "142003.656000",
          "142003.671000",
          "142003.671000",
          "142003.671000",
          "142003.671000",
          "142003.671000",
          "142003.687000",
          "142003.687000",
          "142003.703000",
          "142003.703000",
          "142003.703000",
          "142003.703000",
          "142043.640000",
          "142043.640000",
          "142043.640000",
          "142043.640000",
          "142043.656000",
          "142043.656000",
          "142043.656000",
          "142043.656000",
          "142043.656000",
          "142043.656000",
          "142043.671000",
          "142043.671000",
          "142043.671000",
          "142043.671000",
          "142043.671000",
          "142043.671000",
          "142043.687000",
          "142043.687000",
          "142043.687000",
          "142043.687000",
          "142056.656000",
          "142056.656000",
          "142056.656000",
          "142056.656000",
          "142056.656000",
          "142056.656000",
          "142056.671000"
        ],
        "InstanceNumber": [
          1,
          2,
          3,
          4,
          5,
          6,
          7,
          8,
          9,
          10,
          11,
          12,
          13,
          14,
          15,
          16,
          17,
          18,
          19,
          20,
          21,
          22,
          23,
          24,
          25,
          26,
          27,
          28,
          29,
          30,
          31,
          32,
          33,
          34,
          35,
          36,
          37,
          38,
          39,
          40,
          41,
          42,
          43,
          44,
          45,
          46,
          47,
          48,
          49,
          50,
          51,
          52,
          53,
          54,
          55,
          56,
          57,
          58,
          59,
          60,
          61,
          62,
          63,
          64,
          65,
          66,
          67,
          68,
          69,
          70,
          71,
          72,
          73,
          74,
          75,
          76,
          77,
          78,
          79,
          80,
          81,
          82,
          83,
          84,
          85,
          86,
          87,
          88,
          89,
          90,
          91,
          92,
          93,
          94,
          95,
          96,
          97,
          98,
          99,
          100,
          101,
          102,
          103,
          104,
          105,
          106,
          107,
          108,
          109,
          110,
          111,
          112,
          113,
          114,
          115,
          116,
          117,
          118,
          119,
          120,
          121,
          122,
          123,
          124,
          125,
          126,
          127,
          128,
          129,
          130,
          131,
          132,
          133,
          134,
          135,
          136,
          137,
          138,
          139,
          140,
          141,
          142,
          143,
          144,
          145,
          146,
          147,
          148,
          149,
          150,
          151,
          152,
          153,
          154,
          155,
          156,
          157,
          158,
          159,
          160,
          161,
          162,
          163,
          164
        ],
        "WindowCenter": [
          1035.0,
          1031.0,
          1031.0,
          1034.0,
          1035.0,
          1034.0,
          1034.0,
          1034.0,
          1032.0,
          1034.0,
          1035.0,
          1034.0,
          1034.0,
          1035.0,
          1032.0,
          1034.0,
          1035.0,
          1033.0,
          1034.0,
          1034.0,
          1032.0,
          1032.0,
          1033.0,
          1035.0,
          1035.0,
          1033.0,
          1034.0,
          1033.0,
          1032.0,
          1032.0,
          1033.0,
          1033.0,
          1034.0,
          1033.0,
          1032.0,
          1031.0,
          1032.0,
          1034.0,
          1033.0,
          1032.0,
          1032.0,
          1033.0,
          1033.0,
          1032.0,
          1034.0,
          1035.0,
          1034.0,
          1032.0,
          1032.0,
          1035.0,
          1034.0,
          1034.0,
          1035.0,
          1033.0,
          1035.0,
          1034.0,
          1033.0,
          1034.0,
          1033.0,
          1035.0,
          1035.0,
          1033.0,
          1033.0,
          1033.0,
          1036.0,
          1035.0,
          1035.0,
          1035.0,
          1035.0,
          1033.0,
          1034.0,
          1035.0,
          1033.0,
          1035.0,
          1033.0,
          1035.0,
          1033.0,
          1034.0,
          1034.0,
          1038.0,
          1036.0,
          1033.0,
          1032.0,
          1034.0,
          1037.0,
          1037.0,
          1036.0,
          1034.0,
          1036.0,
          1035.0,
          1035.0,
          1034.0,
          1034.0,
          1034.0,
          1034.0,
          1034.0,
          1034.0,
          1035.0,
          1033.0,
          1033.0,
          1032.0,
          1032.0,
          1036.0,
          1037.0,
          1034.0,
          1034.0,
          1034.0,
          1033.0,
          1035.0,
          1034.0,
          1033.0,
          1034.0,
          1032.0,
          1032.0,
          1031.0,
          1034.0,
          1037.0,
          1036.0,
          1033.0,
          1034.0,
          1035.0,
          1036.0,
          1036.0,
          1035.0,
          1034.0,
          1035.0,
          1035.0,
          1036.0,
          1036.0,
          1034.0,
          1035.0,
          1036.0,
          1034.0,
          1035.0,
          1036.0,
          1036.0,
          1035.0,
          1035.0,
          1036.0,
          1036.0,
          1035.0,
          1035.0,
          1036.0,
          1035.0,
          1035.0,
          1035.0,
          1036.0,
          1035.0,
          1035.0,
          1036.0,
          1033.0,
          1033.0,
          1032.0,
          1034.0,
          1035.0,
          1033.0,
          1034.0,
          1035.0,
          1033.0,
          1036.0,
          1037.0,
          1035.0,
          1036.0,
          1035.0
        ],
        "WindowWidth": [
          2731.0,
          2717.0,
          2724.0,
          2728.0,
          2732.0,
          2729.0,
          2733.0,
          2731.0,
          2720.0,
          2735.0,
          2735.0,
          2728.0,
          2736.0,
          2732.0,
          2723.0,
          2739.0,
          2733.0,
          2720.0,
          2734.0,
          2732.0,
          2720.0,
          2718.0,
          2728.0,
          2735.0,
          2728.0,
          2724.0,
          2733.0,
          2727.0,
          2720.0,
          2729.0,
          2728.0,
          2721.0,
          2729.0,
          2720.0,
          2724.0,
          2714.0,
          2725.0,
          2728.0,
          2721.0,
          2728.0,
          2721.0,
          2731.0,
          2724.0,
          2722.0,
          2738.0,
          2735.0,
          2730.0,
          2717.0,
          2725.0,
          2735.0,
          2727.0,
          2736.0,
          2728.0,
          2729.0,
          2736.0,
          2727.0,
          2729.0,
          2732.0,
          2721.0,
          2736.0,
          2730.0,
          2726.0,
          2724.0,
          2723.0,
          2738.0,
          2727.0,
          2738.0,
          2727.0,
          2733.0,
          2725.0,
          2733.0,
          2728.0,
          2733.0,
          2729.0,
          2725.0,
          2735.0,
          2728.0,
          2727.0,
          2729.0,
          2747.0,
          2730.0,
          2719.0,
