{
  "aor": 0.0009593902439024389,
  "aqi": 0.00359628006097561,
  "bids_meta": {
    "AcquisitionMatrixPE": 96,
    "AcquisitionNumber": 1,
    "AcquisitionTime": "14:02:59.425000",
    "BandwidthPerPixelPhaseEncode": 52.083,
    "BaseResolution": 96,
    "BodyPartExamined": "HEAD",
    "ConversionSoftware": "dcm2niix",
    "ConversionSoftwareVersion": "v1.0.20180622 GCC6.3.0",
    "DerivedVendorReportedEchoSpacing": 0.000600004,
    "DeviceSerialNumber": "18926",
    "DwellTime": 2.6e-06,
    "EchoTime": 0.025,
    "EffectiveEchoSpacing": 0.000200001,
    "FlipAngle": 50,
    "ImageOrientationPatientDICOM": [
      0.999992,
      0.00067012,
      0.00404905,
      2.11009e-10,
      0.98658,
      -0.16328
    ],
    "ImageType": [
      "ORIGINAL",
      "PRIMARY",
      "M",
      "ND",
      "ECHO",
      "00",
      "MOSAIC"
    ],
    "InPlanePhaseEncodingDirectionDICOM": "ROW",
    "InstitutionName": "NIMH",
    "InstitutionalDepartmentName": "Department",
    "MRAcquisitionType": "2D",
    "MagneticFieldStrength": 6.98,
    "Manufacturer": "Siemens",
    "ManufacturersModelName": "Investigational_Device_7T",
    "Modality": "MR",
    "ParallelReductionFactorInPlane": 3,
    "PartialFourier": 1,
    "PatientPosition": "HFS",
    "PercentPhaseFOV": 100,
    "PhaseEncodingDirection": "i",
    "PhaseEncodingSteps": 94,
    "PhaseResolution": 1,
    "PixelBandwidth": 2003,
    "ProcedureStepDescription": "MRI_Procedure_Limited",
    "ProtocolName": "NIH_EPI_2.0iso_TR2_Run09",
    "PulseSequenceDetails": "%CustomerSeq%_inati_nih_epi",
    "ReceiveCoilName": "32Ch_Head_7T",
    "ReconMatrixPE": 96,
    "RepetitionTime": 2,
    "SAR": 0.0772875,
    "ScanningSequence": "EP",
    "SequenceName": "epfid2d1_96",
    "SequenceVariant": "SK",
    "SeriesDescription": "NIH_EPI_2.0iso_TR2_Run09",
    "SeriesNumber": 13,
    "ShimSetting": [
      -82,
      284,
      1186,
      1731,
      -62,
      609,
      209,
      -258
    ],
    "SliceThickness": 2,
    "SliceTiming": [
      1.0025,
      0,
      1.04,
      0.0375,
      1.0775,
      0.075,
      1.115,
      0.1125,
      1.1525,
      0.1475,
      1.19,
      0.185,
      1.2275,
      0.2225,
      1.265,
      0.26,
      1.3,
      0.2975,
      1.3375,
      0.335,
      1.375,
      0.3725,
      1.4125,
      0.41,
      1.45,
      0.445,
      1.4875,
      0.4825,
      1.525,
      0.52,
      1.5625,
      0.5575,
      1.5975,
      0.595,
      1.635,
      0.6325,
      1.6725,
      0.67,
      1.71,
      0.705,
      1.7475,
      0.7425,
      1.785,
      0.78,
      1.8225,
      0.8175,
      1.86,
      0.855,
      1.895,
      0.8925,
      1.9325,
      0.93,
      1.97,
      0.9675
    ],
    "SoftwareVersions": "syngo_MR_B17",
    "SpacingBetweenSlices": 2,
    "StationName": "FMRIFD7T",
    "TaskName": "FullFovNoAttentionTask",
    "TotalReadoutTime": 0.0190001,
    "TxRefAmp": 279,
    "dataset": "ds001555",
    "dcmmeta_affine": [
      [
        -1.9999831914901733,
        4.2201880878778297e-10,
        0.008208253420889378,
        95.76705169677734
      ],
      [
        -0.0013402394251897931,
        1.973159670829773,
        -0.32655632495880127,
        -61.09407043457031
      ],
      [
        0.008098097518086433,
        0.32655906677246094,
        1.9731431007385254,
        -53.04020690917969
      ],
      [
        0.0,
        0.0,
        0.0,
        1.0
      ]
    ],
    "dcmmeta_reorient_transform": [
      [
        0.0,
        -1.0,
        0.0,
        95.0
      ],
      [
        1.0,
        0.0,
        0.0,
        0.0
      ],
      [
        0.0,
        0.0,
        1.0,
        0.0
      ],
      [
        0.0,
        0.0,
        0.0,
        1.0
      ]
    ],
    "dcmmeta_shape": [
      96,
      96,
      54,
      164
    ],
    "dcmmeta_slice_dim": 2,
    "dcmmeta_version": 0.6,
    "global": {
      "const": {
        "AcquisitionMatrix": [
          0,
          96,
          96,
          0
        ],
        "Allergies": "No Known Allergies",
        "AngioFlag": "N",
        "BitsAllocated": 16,
        "BitsStored": 12,
        "BodyPartExamined": "HEAD",
        "Columns": 768,
        "EchoNumbers": 1,
        "EchoTime": 25.0,
        "EchoTrainLength": 1,
        "FlipAngle": 50.0,
        "HighBit": 11,
        "ImageOrientationPatient": [
          0.99999157803662,
          0.00067011969073,
          0.00404904870684,
          2.110094e-10,
          0.98657984636313,
          -0.1632795356133
        ],
        "ImagePositionPatient": [
          -767.761392775,
          -789.78807875724,
          84.985791287915
        ],
        "ImageType": [
          "ORIGINAL",
          "PRIMARY",
          "M",
          "ND",
          "ECHO_00",
          "MOSAIC"
        ],
        "ImagedNucleus": "1H",
        "ImagingFrequency": 297.205143,
        "InPlanePhaseEncodingDirection": "ROW",
        "LargestImagePixelValue": 4095,
        "MRAcquisitionType": "2D",
        "MagneticFieldStrength": 6.98,
        "Manufacturer": "SIEMENS",
        "ManufacturerModelName": "Investigational_Device_7T",
        "Modality": "MR",
        "NumberOfAverages": 1.0,
        "NumberOfPhaseEncodingSteps": 94,
        "PercentPhaseFieldOfView": 100.0,
        "PercentSampling": 100.0,
        "PerformedProcedureStepStartTime": "125606.015000",
        "PhotometricInterpretation": "MONOCHROME2",
        "PixelBandwidth": 2003.0,
        "PixelRepresentation": 0,
        "PixelSpacing": [
          2.0,
          2.0
        ],
        "PositionReferenceIndicator": "",
        "ProcedureCodeSequence": [
          {
            "CodeMeaning": "MRI Procedure Limited",
            "CodeValue": "MI01491",
            "CodingSchemeDesignator": "USA Standard",
            "ContextIdentifier": "4000111519"
          }
        ],
        "ProtocolName": "NIH_EPI_2.0iso_TR2_Run09",
        "ReferencedStudySequence": [
          {
            "ReferencedSOPClassUID": "1.2.840.10008.3.1.2.3.1",
            "ReferencedSOPInstanceUID": "1.2.840.113564.9.1.2723958737.61.2.5000077300"
          }
        ],
        "RepetitionTime": 2000.0,
        "RequestedProcedureCodeSequence": [
          {
            "CodeMeaning": "MRI Procedure Limited",
            "CodeValue": "MI01491",
            "CodingSchemeDesignator": "USA Standard",
            "ContextIdentifier": "4000111519"
          }
        ],
        "RequestingService": "MHED",
        "Rows": 768,
        "SAR": 0.07728754046703,
        "SamplesPerPixel": 1,
        "ScanningSequence": "EP",
        "SequenceName": "epfid2d1_96",
        "SequenceVariant": "SK",
        "SeriesDescription": "NIH_EPI_2.0iso_TR2_Run09",
        "SeriesNumber": 13,
        "SliceLocation": -41.959591880066,
        "SliceThickness": 2.0,
        "SmallestImagePixelValue": 0,
        "SoftwareVersions": "syngo MR B17",
        "SpacingBetweenSlices": 2.0000000184226,
        "TransmitCoilName": "32Ch_Head_7T",
        "VariableFlipAngleFlag": "N",
        "WindowCenterWidthExplanation": "Algo1",
        "dBdt": 0.0
      },
      "slices": {}
    },
    "modality": "bold",
    "run_id": 10,
    "session_id": "07",
    "subject_id": "002",
    "task_id": "FullFovNoAttentionTask",
    "time": {
      "samples": {
        "AcquisitionNumber": [
          1,
          2,
          3,
          4,
          5,
          6,
          7,
          8,
          9,
          10,
          11,
          12,
          13,
          14,
          15,
          16,
          17,
          18,
          19,
          20,
          21,
          22,
          23,
          24,
          25,
          26,
          27,
          28,
          29,
          30,
          31,
          32,
          33,
          34,
          35,
          36,
          37,
          38,
          39,
          40,
          41,
          42,
          43,
          44,
          45,
          46,
          47,
          48,
          49,
          50,
          51,
          52,
          53,
          54,
          55,
          56,
          57,
          58,
          59,
          60,
          61,
          62,
          63,
          64,
          65,
          66,
          67,
          68,
          69,
          70,
          71,
          72,
          73,
          74,
          75,
          76,
          77,
          78,
          79,
          80,
          81,
          82,
          83,
          84,
          85,
          86,
          87,
          88,
          89,
          90,
          91,
          92,
          93,
          94,
          95,
          96,
          97,
          98,
          99,
          100,
          101,
          102,
          103,
          104,
          105,
          106,
          107,
          108,
          109,
          110,
          111,
          112,
          113,
          114,
          115,
          116,
          117,
          118,
          119,
          120,
          121,
          122,
          123,
          124,
          125,
          126,
          127,
          128,
          129,
          130,
          131,
          132,
          133,
          134,
          135,
          136,
          137,
          138,
          139,
          140,
          141,
          142,
          143,
          144,
          145,
          146,
          147,
          148,
          149,
          150,
          151,
          152,
          153,
          154,
          155,
          156,
          157,
          158,
          159,
          160,
          161,
          162,
          163,
          164
        ],
        "AcquisitionTime": [
          "140259.425000",
          "140303.442500",
          "140305.450000",
          "140307.457500",
          "140309.467500",
          "140311.475000",
          "140313.482500",
          "140315.490000",
          "140317.497500",
          "140319.507500",
          "140321.515000",
          "140323.522500",
          "140325.530000",
          "140327.537500",
          "140329.547500",
          "140331.555000",
          "140333.562500",
          "140335.570000",
          "140337.580000",
          "140339.587500",
          "140341.595000",
          "140343.602500",
          "140345.610000",
          "140347.620000",
          "140349.627500",
          "140351.635000",
          "140353.642500",
          "140355.650000",
          "140357.660000",
          "140359.667500",
          "140401.675000",
          "140403.682500",
          "140405.690000",
          "140407.700000",
          "140409.707500",
          "140411.715000",
          "140413.722500",
          "140415.732500",
          "140417.740000",
          "140419.747500",
          "140421.755000",
          "140423.762500",
          "140425.772500",
          "140427.780000",
          "140429.787500",
          "140431.795000",
          "140433.802500",
          "140435.812500",
          "140437.820000",
          "140439.827500",
          "140441.835000",
          "140443.845000",
          "140445.852500",
          "140447.860000",
          "140449.867500",
          "140451.875000",
          "140453.885000",
          "140455.892500",
          "140457.900000",
          "140459.907500",
          "140501.915000",
          "140503.925000",
          "140505.932500",
          "140507.940000",
          "140509.947500",
          "140511.957500",
          "140513.965000",
          "140515.972500",
          "140517.980000",
          "140519.987500",
          "140521.997500",
          "140524.005000",
          "140526.012500",
          "140528.020000",
          "140530.027500",
          "140532.037500",
          "140534.045000",
          "140536.052500",
          "140538.060000",
          "140540.067500",
          "140542.077500",
          "140544.085000",
          "140546.092500",
          "140548.100000",
          "140550.110000",
          "140552.117500",
          "140554.125000",
          "140556.132500",
          "140558.140000",
          "140600.150000",
          "140602.157500",
          "140604.165000",
          "140606.172500",
          "140608.180000",
          "140610.190000",
          "140612.197500",
          "140614.205000",
          "140616.212500",
          "140618.222500",
          "140620.230000",
          "140622.237500",
          "140624.245000",
          "140626.252500",
          "140628.262500",
          "140630.270000",
          "140632.277500",
          "140634.285000",
          "140636.292500",
          "140638.302500",
          "140640.310000",
          "140642.317500",
          "140644.325000",
          "140646.335000",
          "140648.342500",
          "140650.350000",
          "140652.357500",
          "140654.365000",
          "140656.375000",
          "140658.382500",
          "140700.390000",
          "140702.397500",
          "140704.405000",
          "140706.415000",
          "140708.422500",
          "140710.430000",
          "140712.437500",
          "140714.445000",
          "140716.455000",
          "140718.462500",
          "140720.470000",
          "140722.477500",
          "140724.487500",
          "140726.495000",
          "140728.502500",
          "140730.510000",
          "140732.517500",
          "140734.527500",
          "140736.535000",
          "140738.542500",
          "140740.550000",
          "140742.557500",
          "140744.567500",
          "140746.575000",
          "140748.582500",
          "140750.590000",
          "140752.600000",
          "140754.607500",
          "140756.615000",
          "140758.622500",
          "140800.630000",
          "140802.640000",
          "140804.647500",
          "140806.655000",
          "140808.662500",
          "140810.670000",
          "140812.680000",
          "140814.687500",
          "140816.695000",
          "140818.702500",
          "140820.712500",
          "140822.720000",
          "140824.727500",
          "140826.735000",
          "140828.742500"
        ],
        "ContentTime": [
          "140356.171000",
          "140356.171000",
          "140356.187000",
          "140356.187000",
          "140356.187000",
          "140356.187000",
          "140356.187000",
          "140356.187000",
          "140356.203000",
          "140356.203000",
          "140356.203000",
          "140356.203000",
          "140356.203000",
          "140356.218000",
          "140356.218000",
          "140356.218000",
          "140356.218000",
          "140356.218000",
          "140356.234000",
          "140356.234000",
          "140356.234000",
          "140356.234000",
          "140356.234000",
          "140356.234000",
          "140356.250000",
          "140356.250000",
          "140356.250000",
          "140436.171000",
          "140436.171000",
          "140436.171000",
          "140436.171000",
          "140436.187000",
          "140436.187000",
          "140436.187000",
          "140436.187000",
          "140436.187000",
          "140436.203000",
          "140436.203000",
          "140436.203000",
          "140436.203000",
          "140436.203000",
          "140436.203000",
          "140436.218000",
          "140436.218000",
          "140436.218000",
          "140436.218000",
          "140436.218000",
          "140516.171000",
          "140516.171000",
          "140516.171000",
          "140516.187000",
          "140516.187000",
          "140516.187000",
          "140516.187000",
          "140516.187000",
          "140516.187000",
          "140516.203000",
          "140516.203000",
          "140516.203000",
          "140516.203000",
          "140516.218000",
          "140516.218000",
          "140516.218000",
          "140516.218000",
          "140516.218000",
          "140516.234000",
          "140516.234000",
          "140556.171000",
          "140556.171000",
          "140556.171000",
          "140556.171000",
          "140556.171000",
          "140556.171000",
          "140556.187000",
          "140556.187000",
          "140556.187000",
          "140556.187000",
          "140556.187000",
          "140556.187000",
          "140556.203000",
          "140556.203000",
          "140556.203000",
          "140556.203000",
          "140556.203000",
          "140556.218000",
          "140556.218000",
          "140556.218000",
          "140636.171000",
          "140636.171000",
          "140636.171000",
          "140636.171000",
          "140636.187000",
          "140636.187000",
          "140636.187000",
          "140636.187000",
          "140636.187000",
          "140636.203000",
          "140636.203000",
          "140636.203000",
          "140636.203000",
          "140636.203000",
          "140636.203000",
          "140636.218000",
          "140636.218000",
          "140636.218000",
          "140636.218000",
          "140636.218000",
          "140716.171000",
          "140716.171000",
          "140716.171000",
          "140716.171000",
          "140716.171000",
          "140716.187000",
          "140716.187000",
          "140716.187000",
          "140716.187000",
          "140716.187000",
          "140716.203000",
          "140716.203000",
          "140716.203000",
          "140716.203000",
          "140716.203000",
          "140716.203000",
          "140716.218000",
          "140716.218000",
          "140716.218000",
          "140716.218000",
          "140756.171000",
          "140756.171000",
          "140756.171000",
          "140756.171000",
          "140756.171000",
          "140756.187000",
          "140756.187000",
          "140756.187000",
          "140756.187000",
          "140756.187000",
          "140756.187000",
          "140756.187000",
          "140756.203000",
          "140756.203000",
          "140756.203000",
          "140756.203000",
          "140756.203000",
          "140756.203000",
          "140756.218000",
          "140756.218000",
          "140828.468000",
          "140828.484000",
          "140828.484000",
          "140828.484000",
          "140828.500000",
          "140828.500000",
          "140828.500000",
          "140828.500000",
          "140828.500000",
          "140828.500000",
          "140828.515000",
          "140828.515000",
          "140828.515000",
          "140828.515000",
          "140828.515000",
          "140828.515000",
          "140828.515000"
        ],
        "InstanceCreationTime": [
          "140356.171000",
          "140356.171000",
          "140356.187000",
          "140356.187000",
          "140356.187000",
          "140356.187000",
          "140356.187000",
          "140356.187000",
          "140356.203000",
          "140356.203000",
          "140356.203000",
          "140356.203000",
          "140356.203000",
          "140356.218000",
          "140356.218000",
          "140356.218000",
          "140356.218000",
          "140356.218000",
          "140356.234000",
          "140356.234000",
          "140356.234000",
          "140356.234000",
          "140356.234000",
          "140356.234000",
          "140356.250000",
          "140356.250000",
          "140356.250000",
          "140436.171000",
          "140436.171000",
          "140436.171000",
          "140436.171000",
          "140436.187000",
          "140436.187000",
          "140436.187000",
          "140436.187000",
          "140436.187000",
          "140436.203000",
          "140436.203000",
          "140436.203000",
          "140436.203000",
          "140436.203000",
          "140436.203000",
          "140436.218000",
          "140436.218000",
          "140436.218000",
          "140436.218000",
          "140436.218000",
          "140516.171000",
          "140516.171000",
          "140516.171000",
          "140516.187000",
          "140516.187000",
          "140516.187000",
          "140516.187000",
          "140516.187000",
          "140516.187000",
          "140516.203000",
          "140516.203000",
          "140516.203000",
          "140516.203000",
          "140516.218000",
          "140516.218000",
          "140516.218000",
          "140516.218000",
          "140516.218000",
          "140516.234000",
          "140516.234000",
          "140556.171000",
          "140556.171000",
          "140556.171000",
          "140556.171000",
          "140556.171000",
          "140556.171000",
          "140556.187000",
          "140556.187000",
          "140556.187000",
          "140556.187000",
          "140556.187000",
          "140556.187000",
          "140556.203000",
          "140556.203000",
          "140556.203000",
          "140556.203000",
          "140556.203000",
          "140556.218000",
          "140556.218000",
          "140556.218000",
          "140636.171000",
          "140636.171000",
          "140636.171000",
          "140636.171000",
          "140636.187000",
          "140636.187000",
          "140636.187000",
          "140636.187000",
          "140636.187000",
          "140636.203000",
          "140636.203000",
          "140636.203000",
          "140636.203000",
          "140636.203000",
          "140636.203000",
          "140636.218000",
          "140636.218000",
          "140636.218000",
          "140636.218000",
          "140636.218000",
          "140716.171000",
          "140716.171000",
          "140716.171000",
          "140716.171000",
          "140716.171000",
          "140716.187000",
          "140716.187000",
          "140716.187000",
          "140716.187000",
          "140716.187000",
          "140716.203000",
          "140716.203000",
          "140716.203000",
          "140716.203000",
          "140716.203000",
          "140716.203000",
          "140716.218000",
          "140716.218000",
          "140716.218000",
          "140716.218000",
          "140756.171000",
          "140756.171000",
          "140756.171000",
          "140756.171000",
          "140756.171000",
          "140756.187000",
          "140756.187000",
          "140756.187000",
          "140756.187000",
          "140756.187000",
          "140756.187000",
          "140756.187000",
          "140756.203000",
          "140756.203000",
          "140756.203000",
          "140756.203000",
          "140756.203000",
          "140756.203000",
          "140756.218000",
          "140756.218000",
          "140828.468000",
          "140828.484000",
          "140828.484000",
          "140828.484000",
          "140828.500000",
          "140828.500000",
          "140828.500000",
          "140828.500000",
          "140828.500000",
          "140828.500000",
          "140828.515000",
          "140828.515000",
          "140828.515000",
          "140828.515000",
          "140828.515000",
          "140828.515000",
          "140828.515000"
        ],
        "InstanceNumber": [
          1,
          2,
          3,
          4,
          5,
          6,
          7,
          8,
          9,
          10,
          11,
          12,
          13,
          14,
          15,
          16,
          17,
          18,
          19,
          20,
          21,
          22,
          23,
          24,
          25,
          26,
          27,
          28,
          29,
          30,
          31,
          32,
          33,
          34,
          35,
          36,
          37,
          38,
          39,
          40,
          41,
          42,
          43,
          44,
          45,
          46,
          47,
          48,
          49,
          50,
          51,
          52,
          53,
          54,
          55,
          56,
          57,
          58,
          59,
          60,
          61,
          62,
          63,
          64,
          65,
          66,
          67,
          68,
          69,
          70,
          71,
          72,
          73,
          74,
          75,
          76,
          77,
          78,
          79,
          80,
          81,
          82,
          83,
          84,
          85,
          86,
          87,
          88,
          89,
          90,
          91,
          92,
          93,
          94,
          95,
          96,
          97,
          98,
          99,
          100,
          101,
          102,
          103,
          104,
          105,
          106,
          107,
          108,
          109,
          110,
          111,
          112,
          113,
          114,
          115,
          116,
          117,
          118,
          119,
          120,
          121,
          122,
          123,
          124,
          125,
          126,
          127,
          128,
          129,
          130,
          131,
          132,
          133,
          134,
          135,
          136,
          137,
          138,
          139,
          140,
          141,
          142,
          143,
          144,
          145,
          146,
          147,
          148,
          149,
          150,
          151,
          152,
          153,
          154,
          155,
          156,
          157,
          158,
          159,
          160,
          161,
          162,
          163,
          164
        ],
        "WindowCenter": [
          1034.0,
          1035.0,
          1034.0,
          1032.0,
          1034.0,
          1034.0,
          1033.0,
          1034.0,
          1034.0,
          1037.0,
          1036.0,
          1033.0,
          1032.0,
          1034.0,
          1036.0,
          1035.0,
          1036.0,
          1034.0,
          1035.0,
          1034.0,
          1035.0,
          1034.0,
          1034.0,
          1034.0,
          1036.0,
          1035.0,
          1033.0,
          1033.0,
          1035.0,
          1034.0,
          1033.0,
          1033.0,
          1034.0,
          1034.0,
          1035.0,
          1035.0,
          1033.0,
          1035.0,
          1035.0,
          1035.0,
          1034.0,
          1034.0,
          1035.0,
          1034.0,
          1034.0,
          1036.0,
          1035.0,
          1036.0,
          1035.0,
          1035.0,
          1034.0,
          1034.0,
          1035.0,
          1036.0,
          1034.0,
          1033.0,
          1035.0,
          1034.0,
          1034.0,
          1033.0,
          1035.0,
          1034.0,
          1033.0,
          1033.0,
          1034.0,
          1034.0,
          1035.0,
          1034.0,
          1033.0,
          1033.0,
          1033.0,
          1034.0,
          1036.0,
          1036.0,
          1035.0,
          1034.0,
          1035.0,
          1036.0,
          1036.0,
          1035.0,
          1036.0,
          1034.0,
          1036.0,
          1033.0,
          1033.0,
          1033.0,
          1033.0,
          1035.0,
          1035.0,
          1034.0,
          1034.0,
          1035.0,
          1035.0,
          1035.0,
          1035.0,
          1035.0,
          1036.0,
          1034.0,
          1034.0,
          1034.0,
          1035.0,
          1036.0,
          1035.0,
          1035.0,
          1034.0,
          1034.0,
          1035.0,
          1036.0,
          1035.0,
          1036.0,
          1034.0,
          1034.0,
          1035.0,
          1035.0,
          1035.0,
          1035.0,
          1035.0,
          1037.0,
          1036.0,
          1034.0,
          1034.0,
          1035.0,
          1037.0,
          1034.0,
          1035.0,
          1036.0,
          1036.0,
          1036.0,
          1035.0,
          1034.0,
          1037.0,
          1037.0,
          1035.0,
          1034.0,
          1035.0,
          1037.0,
          1037.0,
          1034.0,
          1035.0,
          1035.0,
          1035.0,
          1034.0,
          1035.0,
          1034.0,
          1035.0,
          1034.0,
          1035.0,
          1035.0,
          1034.0,
          1033.0,
          1035.0,
          1035.0,
          1034.0,
          1034.0,
          1037.0,
          1036.0,
          1034.0,
          1034.0,
          1037.0,
          1036.0,
          1035.0,
          1035.0,
          1037.0,
          1035.0
        ],
        "WindowWidth": [
          2725.0,
          2734.0,
          2728.0,
          2721.0,
          2736.0,
          2727.0,
          2730.0,
          2727.0,
          2728.0,
          2746.0,
          2733.0,
          2723.0,
          2722.0,
          2736.0,
          2735.0,
          2736.0,
          2739.0,
          2728.0,
          2731.0,
          2724.0,
          2732.0,
          2724.0,
          2731.0,
          2727.0,
          2739.0,
          2725.0,
          2729.0,
          2728.0,
          2733.0,
          2723.0,
          2730.0,
          2726.0,
          2729.0,
          2729.0,
          2732.0,
          2733.0,
          2722.0,
          2734.0,
          2729.0,
          2733.0,
          2732.0,
          2728.0,
          2734.0,
          2728.0,
          2729.0,
          2738.0,
          2732.0,
          2740.0,
          2731.0,
          2734.0,
          2731.0,
          2730.0,
          2736.0,
          2734.0,
          2728.0,
          2727.0,
          2734.0,
          2728.0,
          2730.0,
          2726.0,
          2739.0,
          2727.0,
          2730.0,
          2726.0,
          2730.0,
          2726.0,
          2739.0,
          2732.0,
          2728.0,
          2725.0,
          2725.0,
          2737.0,
          2738.0,
          2737.0,
          2729.0,
          2728.0,
          2731.0,
          2734.0,
          2735.0,
          2733.0,
          2732.0,
          2733.0,
