{
  "aor": 0.001418719512195122,
  "aqi": 0.004280803536585365,
  "bids_meta": {
    "AcquisitionMatrixPE": 96,
    "AcquisitionNumber": 1,
    "AcquisitionTime": "13:50:17.890000",
    "BandwidthPerPixelPhaseEncode": 52.083,
    "BaseResolution": 96,
    "BodyPartExamined": "HEAD",
    "ConversionSoftware": "dcm2niix",
    "ConversionSoftwareVersion": "v1.0.20180622 GCC6.3.0",
    "DerivedVendorReportedEchoSpacing": 0.000600004,
    "DeviceSerialNumber": "18926",
    "DwellTime": 2.6e-06,
    "EchoTime": 0.025,
    "EffectiveEchoSpacing": 0.000200001,
    "FlipAngle": 50,
    "ImageOrientationPatientDICOM": [
      0.999992,
      0.00067012,
      0.00404905,
      2.11009e-10,
      0.98658,
      -0.16328
    ],
    "ImageType": [
      "ORIGINAL",
      "PRIMARY",
      "M",
      "ND",
      "ECHO",
      "00",
      "MOSAIC"
    ],
    "InPlanePhaseEncodingDirectionDICOM": "ROW",
    "InstitutionName": "NIMH",
    "InstitutionalDepartmentName": "Department",
    "MRAcquisitionType": "2D",
    "MagneticFieldStrength": 6.98,
    "Manufacturer": "Siemens",
    "ManufacturersModelName": "Investigational_Device_7T",
    "Modality": "MR",
    "ParallelReductionFactorInPlane": 3,
    "PartialFourier": 1,
    "PatientPosition": "HFS",
    "PercentPhaseFOV": 100,
    "PhaseEncodingDirection": "i",
    "PhaseEncodingSteps": 94,
    "PhaseResolution": 1,
    "PixelBandwidth": 2003,
    "ProcedureStepDescription": "MRI_Procedure_Limited",
    "ProtocolName": "NIH_EPI_2.0iso_TR2_Run07",
    "PulseSequenceDetails": "%CustomerSeq%_inati_nih_epi",
    "ReceiveCoilName": "32Ch_Head_7T",
    "ReconMatrixPE": 96,
    "RepetitionTime": 2,
    "SAR": 0.0772875,
    "ScanningSequence": "EP",
    "SequenceName": "epfid2d1_96",
    "SequenceVariant": "SK",
    "SeriesDescription": "NIH_EPI_2.0iso_TR2_Run07",
    "SeriesNumber": 11,
    "ShimSetting": [
      -82,
      284,
      1186,
      1731,
      -62,
      609,
      209,
      -258
    ],
    "SliceThickness": 2,
    "SliceTiming": [
      1.0025,
      0,
      1.04,
      0.0375,
      1.0775,
      0.075,
      1.115,
      0.1125,
      1.1525,
      0.1475,
      1.19,
      0.185,
      1.2275,
      0.2225,
      1.265,
      0.26,
      1.3,
      0.2975,
      1.3375,
      0.335,
      1.375,
      0.3725,
      1.4125,
      0.4075,
      1.45,
      0.445,
      1.4875,
      0.4825,
      1.525,
      0.52,
      1.5625,
      0.5575,
      1.5975,
      0.595,
      1.635,
      0.6325,
      1.6725,
      0.67,
      1.71,
      0.705,
      1.7475,
      0.7425,
      1.785,
      0.78,
      1.8225,
      0.8175,
      1.8575,
      0.855,
      1.895,
      0.8925,
      1.9325,
      0.93,
      1.97,
      0.9675
    ],
    "SoftwareVersions": "syngo_MR_B17",
    "SpacingBetweenSlices": 2,
    "StationName": "FMRIFD7T",
    "TaskName": "FullFovNoAttentionTask",
    "TotalReadoutTime": 0.0190001,
    "TxRefAmp": 279,
    "dataset": "ds001555",
    "dcmmeta_affine": [
      [
        -1.9999831914901733,
        4.2201880878778297e-10,
        0.008208253420889378,
        95.76705169677734
      ],
      [
        -0.0013402394251897931,
        1.973159670829773,
        -0.32655632495880127,
        -61.09407043457031
      ],
      [
        0.008098097518086433,
        0.32655906677246094,
        1.9731431007385254,
        -53.04020690917969
      ],
      [
        0.0,
        0.0,
        0.0,
        1.0
      ]
    ],
    "dcmmeta_reorient_transform": [
      [
        0.0,
        -1.0,
        0.0,
        95.0
      ],
      [
        1.0,
        0.0,
        0.0,
        0.0
      ],
      [
        0.0,
        0.0,
        1.0,
        0.0
      ],
      [
        0.0,
        0.0,
        0.0,
        1.0
      ]
    ],
    "dcmmeta_shape": [
      96,
      96,
      54,
      164
    ],
    "dcmmeta_slice_dim": 2,
    "dcmmeta_version": 0.6,
    "global": {
      "const": {
        "AcquisitionMatrix": [
          0,
          96,
          96,
          0
        ],
        "Allergies": "No Known Allergies",
        "AngioFlag": "N",
        "BitsAllocated": 16,
        "BitsStored": 12,
        "BodyPartExamined": "HEAD",
        "Columns": 768,
        "EchoNumbers": 1,
        "EchoTime": 25.0,
        "EchoTrainLength": 1,
        "FlipAngle": 50.0,
        "HighBit": 11,
        "ImageOrientationPatient": [
          0.99999157803662,
          0.00067011969073,
          0.00404904870684,
          2.110094e-10,
          0.98657984636313,
          -0.1632795356133
        ],
        "ImagePositionPatient": [
          -767.761392775,
          -789.78807875724,
          84.985791287915
        ],
        "ImageType": [
          "ORIGINAL",
          "PRIMARY",
          "M",
          "ND",
          "ECHO_00",
          "MOSAIC"
        ],
        "ImagedNucleus": "1H",
        "ImagingFrequency": 297.205105,
        "InPlanePhaseEncodingDirection": "ROW",
        "LargestImagePixelValue": 4095,
        "MRAcquisitionType": "2D",
        "MagneticFieldStrength": 6.98,
        "Manufacturer": "SIEMENS",
        "ManufacturerModelName": "Investigational_Device_7T",
        "Modality": "MR",
        "NumberOfAverages": 1.0,
        "NumberOfPhaseEncodingSteps": 94,
        "PercentPhaseFieldOfView": 100.0,
        "PercentSampling": 100.0,
        "PerformedProcedureStepStartTime": "125606.015000",
        "PhotometricInterpretation": "MONOCHROME2",
        "PixelBandwidth": 2003.0,
        "PixelRepresentation": 0,
        "PixelSpacing": [
          2.0,
          2.0
        ],
        "PositionReferenceIndicator": "",
        "ProcedureCodeSequence": [
          {
            "CodeMeaning": "MRI Procedure Limited",
            "CodeValue": "MI01491",
            "CodingSchemeDesignator": "USA Standard",
            "ContextIdentifier": "4000111519"
          }
        ],
        "ProtocolName": "NIH_EPI_2.0iso_TR2_Run07",
        "ReferencedStudySequence": [
          {
            "ReferencedSOPClassUID": "1.2.840.10008.3.1.2.3.1",
            "ReferencedSOPInstanceUID": "1.2.840.113564.9.1.2723958737.61.2.5000077300"
          }
        ],
        "RepetitionTime": 2000.0,
        "RequestedProcedureCodeSequence": [
          {
            "CodeMeaning": "MRI Procedure Limited",
            "CodeValue": "MI01491",
            "CodingSchemeDesignator": "USA Standard",
            "ContextIdentifier": "4000111519"
          }
        ],
        "RequestingService": "MHED",
        "Rows": 768,
        "SAR": 0.07728754046703,
        "SamplesPerPixel": 1,
        "ScanningSequence": "EP",
        "SequenceName": "epfid2d1_96",
        "SequenceVariant": "SK",
        "SeriesDescription": "NIH_EPI_2.0iso_TR2_Run07",
        "SeriesNumber": 11,
        "SliceLocation": -41.959591880066,
        "SliceThickness": 2.0,
        "SmallestImagePixelValue": 0,
        "SoftwareVersions": "syngo MR B17",
        "SpacingBetweenSlices": 2.0000000184226,
        "TransmitCoilName": "32Ch_Head_7T",
        "VariableFlipAngleFlag": "N",
        "WindowCenterWidthExplanation": "Algo1",
        "dBdt": 0.0
      },
      "slices": {}
    },
    "modality": "bold",
    "run_id": 8,
    "session_id": "07",
    "subject_id": "002",
    "task_id": "FullFovNoAttentionTask",
    "time": {
      "samples": {
        "AcquisitionNumber": [
          1,
          2,
          3,
          4,
          5,
          6,
          7,
          8,
          9,
          10,
          11,
          12,
          13,
          14,
          15,
          16,
          17,
          18,
          19,
          20,
          21,
          22,
          23,
          24,
          25,
          26,
          27,
          28,
          29,
          30,
          31,
          32,
          33,
          34,
          35,
          36,
          37,
          38,
          39,
          40,
          41,
          42,
          43,
          44,
          45,
          46,
          47,
          48,
          49,
          50,
          51,
          52,
          53,
          54,
          55,
          56,
          57,
          58,
          59,
          60,
          61,
          62,
          63,
          64,
          65,
          66,
          67,
          68,
          69,
          70,
          71,
          72,
          73,
          74,
          75,
          76,
          77,
          78,
          79,
          80,
          81,
          82,
          83,
          84,
          85,
          86,
          87,
          88,
          89,
          90,
          91,
          92,
          93,
          94,
          95,
          96,
          97,
          98,
          99,
          100,
          101,
          102,
          103,
          104,
          105,
          106,
          107,
          108,
          109,
          110,
          111,
          112,
          113,
          114,
          115,
          116,
          117,
          118,
          119,
          120,
          121,
          122,
          123,
          124,
          125,
          126,
          127,
          128,
          129,
          130,
          131,
          132,
          133,
          134,
          135,
          136,
          137,
          138,
          139,
          140,
          141,
          142,
          143,
          144,
          145,
          146,
          147,
          148,
          149,
          150,
          151,
          152,
          153,
          154,
          155,
          156,
          157,
          158,
          159,
          160,
          161,
          162,
          163,
          164
        ],
        "AcquisitionTime": [
          "135017.890000",
          "135021.907500",
          "135023.915000",
          "135025.922500",
          "135027.932500",
          "135029.940000",
          "135031.947500",
          "135033.955000",
          "135035.962500",
          "135037.972500",
          "135039.980000",
          "135041.987500",
          "135043.995000",
          "135046.002500",
          "135048.012500",
          "135050.020000",
          "135052.027500",
          "135054.035000",
          "135056.042500",
          "135058.052500",
          "135100.060000",
          "135102.067500",
          "135104.075000",
          "135106.085000",
          "135108.092500",
          "135110.100000",
          "135112.107500",
          "135114.115000",
          "135116.125000",
          "135118.132500",
          "135120.140000",
          "135122.147500",
          "135124.155000",
          "135126.165000",
          "135128.172500",
          "135130.180000",
          "135132.187500",
          "135134.197500",
          "135136.205000",
          "135138.212500",
          "135140.220000",
          "135142.227500",
          "135144.237500",
          "135146.245000",
          "135148.252500",
          "135150.260000",
          "135152.267500",
          "135154.277500",
          "135156.285000",
          "135158.292500",
          "135200.300000",
          "135202.310000",
          "135204.317500",
          "135206.325000",
          "135208.332500",
          "135210.340000",
          "135212.350000",
          "135214.357500",
          "135216.365000",
          "135218.372500",
          "135220.380000",
          "135222.390000",
          "135224.397500",
          "135226.405000",
          "135228.412500",
          "135230.420000",
          "135232.430000",
          "135234.437500",
          "135236.445000",
          "135238.452500",
          "135240.462500",
          "135242.470000",
          "135244.477500",
          "135246.485000",
          "135248.492500",
          "135250.502500",
          "135252.510000",
          "135254.517500",
          "135256.525000",
          "135258.532500",
          "135300.542500",
          "135302.550000",
          "135304.557500",
          "135306.565000",
          "135308.575000",
          "135310.582500",
          "135312.590000",
          "135314.597500",
          "135316.605000",
          "135318.615000",
          "135320.622500",
          "135322.630000",
          "135324.637500",
          "135326.645000",
          "135328.655000",
          "135330.662500",
          "135332.670000",
          "135334.677500",
          "135336.687500",
          "135338.695000",
          "135340.702500",
          "135342.710000",
          "135344.717500",
          "135346.727500",
          "135348.735000",
          "135350.742500",
          "135352.750000",
          "135354.757500",
          "135356.767500",
          "135358.775000",
          "135400.782500",
          "135402.790000",
          "135404.797500",
          "135406.807500",
          "135408.815000",
          "135410.822500",
          "135412.830000",
          "135414.840000",
          "135416.847500",
          "135418.855000",
          "135420.862500",
          "135422.870000",
          "135424.880000",
          "135426.887500",
          "135428.895000",
          "135430.902500",
          "135432.910000",
          "135434.920000",
          "135436.927500",
          "135438.935000",
          "135440.942500",
          "135442.952500",
          "135444.960000",
          "135446.967500",
          "135448.975000",
          "135450.982500",
          "135452.992500",
          "135455.000000",
          "135457.007500",
          "135459.015000",
          "135501.022500",
          "135503.032500",
          "135505.040000",
          "135507.047500",
          "135509.055000",
          "135511.065000",
          "135513.072500",
          "135515.080000",
          "135517.087500",
          "135519.095000",
          "135521.105000",
          "135523.112500",
          "135525.120000",
          "135527.127500",
          "135529.135000",
          "135531.145000",
          "135533.152500",
          "135535.160000",
          "135537.167500",
          "135539.175000",
          "135541.185000",
          "135543.192500",
          "135545.200000",
          "135547.207500"
        ],
        "ContentTime": [
          "135117.937000",
          "135117.937000",
          "135117.953000",
          "135117.953000",
          "135117.953000",
          "135117.968000",
          "135117.968000",
          "135117.968000",
          "135117.968000",
          "135117.984000",
          "135117.984000",
          "135117.984000",
          "135117.984000",
          "135117.984000",
          "135117.984000",
          "135118.000000",
          "135118.000000",
          "135118.000000",
          "135118.000000",
          "135118.015000",
          "135118.015000",
          "135118.015000",
          "135118.015000",
          "135118.015000",
          "135118.015000",
          "135118.015000",
          "135118.031000",
          "135118.031000",
          "135118.031000",
          "135157.921000",
          "135157.937000",
          "135157.937000",
          "135157.937000",
          "135157.937000",
          "135157.937000",
          "135157.937000",
          "135157.953000",
          "135157.953000",
          "135157.953000",
          "135157.953000",
          "135157.953000",
          "135157.953000",
          "135157.953000",
          "135157.968000",
          "135157.968000",
          "135157.968000",
          "135157.968000",
          "135157.984000",
          "135157.984000",
          "135237.921000",
          "135237.937000",
          "135237.937000",
          "135237.937000",
          "135237.937000",
          "135237.937000",
          "135237.937000",
          "135237.953000",
          "135237.953000",
          "135237.953000",
          "135237.953000",
          "135237.953000",
          "135237.953000",
          "135237.953000",
          "135237.968000",
          "135237.968000",
          "135237.968000",
          "135237.968000",
          "135237.968000",
          "135237.968000",
          "135317.921000",
          "135317.937000",
          "135317.937000",
          "135317.937000",
          "135317.937000",
          "135317.937000",
          "135317.937000",
          "135317.953000",
          "135317.953000",
          "135317.953000",
          "135317.953000",
          "135317.953000",
          "135317.968000",
          "135317.968000",
          "135317.968000",
          "135317.968000",
          "135317.968000",
          "135317.968000",
          "135317.984000",
          "135317.984000",
          "135357.921000",
          "135357.937000",
          "135357.937000",
          "135357.937000",
          "135357.937000",
          "135357.937000",
          "135357.937000",
          "135357.953000",
          "135357.953000",
          "135357.953000",
          "135357.953000",
          "135357.953000",
          "135357.953000",
          "135357.968000",
          "135357.968000",
          "135357.968000",
          "135357.968000",
          "135357.968000",
          "135357.968000",
          "135357.968000",
          "135437.921000",
          "135437.937000",
          "135437.937000",
          "135437.937000",
          "135437.937000",
          "135437.953000",
          "135437.953000",
          "135437.953000",
          "135437.953000",
          "135437.953000",
          "135437.953000",
          "135437.968000",
          "135437.968000",
          "135437.968000",
          "135437.968000",
          "135437.968000",
          "135437.968000",
          "135437.984000",
          "135437.984000",
          "135437.984000",
          "135517.921000",
          "135517.937000",
          "135517.937000",
          "135517.937000",
          "135517.937000",
          "135517.937000",
          "135517.937000",
          "135517.953000",
          "135517.953000",
          "135517.953000",
          "135517.953000",
          "135517.953000",
          "135517.968000",
          "135517.968000",
          "135517.968000",
          "135517.968000",
          "135517.968000",
          "135517.968000",
          "135517.984000",
          "135517.984000",
          "135547.375000",
          "135547.390000",
          "135547.390000",
          "135547.390000",
          "135547.390000",
          "135547.390000",
          "135547.406000",
          "135547.406000",
          "135547.406000",
          "135547.406000",
          "135547.406000",
          "135547.421000",
          "135547.421000",
          "135547.421000",
          "135547.437000"
        ],
        "InstanceCreationTime": [
          "135117.937000",
          "135117.937000",
          "135117.953000",
          "135117.953000",
          "135117.953000",
          "135117.968000",
          "135117.968000",
          "135117.968000",
          "135117.968000",
          "135117.984000",
          "135117.984000",
          "135117.984000",
          "135117.984000",
          "135117.984000",
          "135117.984000",
          "135118.000000",
          "135118.000000",
          "135118.000000",
          "135118.000000",
          "135118.015000",
          "135118.015000",
          "135118.015000",
          "135118.015000",
          "135118.015000",
          "135118.015000",
          "135118.015000",
          "135118.031000",
          "135118.031000",
          "135118.031000",
          "135157.921000",
          "135157.937000",
          "135157.937000",
          "135157.937000",
          "135157.937000",
          "135157.937000",
          "135157.937000",
          "135157.953000",
          "135157.953000",
          "135157.953000",
          "135157.953000",
          "135157.953000",
          "135157.953000",
          "135157.953000",
          "135157.968000",
          "135157.968000",
          "135157.968000",
          "135157.968000",
          "135157.984000",
          "135157.984000",
          "135237.921000",
          "135237.937000",
          "135237.937000",
          "135237.937000",
          "135237.937000",
          "135237.937000",
          "135237.937000",
          "135237.953000",
          "135237.953000",
          "135237.953000",
          "135237.953000",
          "135237.953000",
          "135237.953000",
          "135237.953000",
          "135237.968000",
          "135237.968000",
          "135237.968000",
          "135237.968000",
          "135237.968000",
          "135237.968000",
          "135317.921000",
          "135317.937000",
          "135317.937000",
          "135317.937000",
          "135317.937000",
          "135317.937000",
          "135317.937000",
          "135317.953000",
          "135317.953000",
          "135317.953000",
          "135317.953000",
          "135317.953000",
          "135317.968000",
          "135317.968000",
          "135317.968000",
          "135317.968000",
          "135317.968000",
          "135317.968000",
          "135317.984000",
          "135317.984000",
          "135357.921000",
          "135357.937000",
          "135357.937000",
          "135357.937000",
          "135357.937000",
          "135357.937000",
          "135357.937000",
          "135357.953000",
          "135357.953000",
          "135357.953000",
          "135357.953000",
          "135357.953000",
          "135357.953000",
          "135357.968000",
          "135357.968000",
          "135357.968000",
          "135357.968000",
          "135357.968000",
          "135357.968000",
          "135357.968000",
          "135437.921000",
          "135437.937000",
          "135437.937000",
          "135437.937000",
          "135437.937000",
          "135437.953000",
          "135437.953000",
          "135437.953000",
          "135437.953000",
          "135437.953000",
          "135437.953000",
          "135437.968000",
          "135437.968000",
          "135437.968000",
          "135437.968000",
          "135437.968000",
          "135437.968000",
          "135437.984000",
          "135437.984000",
          "135437.984000",
          "135517.921000",
          "135517.937000",
          "135517.937000",
          "135517.937000",
          "135517.937000",
          "135517.937000",
          "135517.937000",
          "135517.953000",
          "135517.953000",
          "135517.953000",
          "135517.953000",
          "135517.953000",
          "135517.968000",
          "135517.968000",
          "135517.968000",
          "135517.968000",
          "135517.968000",
          "135517.968000",
          "135517.984000",
          "135517.984000",
          "135547.375000",
          "135547.390000",
          "135547.390000",
          "135547.390000",
          "135547.390000",
          "135547.390000",
          "135547.406000",
          "135547.406000",
          "135547.406000",
          "135547.406000",
          "135547.406000",
          "135547.421000",
          "135547.421000",
          "135547.421000",
          "135547.437000"
        ],
        "InstanceNumber": [
          1,
          2,
          3,
          4,
          5,
          6,
          7,
          8,
          9,
          10,
          11,
          12,
          13,
          14,
          15,
          16,
          17,
          18,
          19,
          20,
          21,
          22,
          23,
          24,
          25,
          26,
          27,
          28,
          29,
          30,
          31,
          32,
          33,
          34,
          35,
          36,
          37,
          38,
          39,
          40,
          41,
          42,
          43,
          44,
          45,
          46,
          47,
          48,
          49,
          50,
          51,
          52,
          53,
          54,
          55,
          56,
          57,
          58,
          59,
          60,
          61,
          62,
          63,
          64,
          65,
          66,
          67,
          68,
          69,
          70,
          71,
          72,
          73,
          74,
          75,
          76,
          77,
          78,
          79,
          80,
          81,
          82,
          83,
          84,
          85,
          86,
          87,
          88,
          89,
          90,
          91,
          92,
          93,
          94,
          95,
          96,
          97,
          98,
          99,
          100,
          101,
          102,
          103,
          104,
          105,
          106,
          107,
          108,
          109,
          110,
          111,
          112,
          113,
          114,
          115,
          116,
          117,
          118,
          119,
          120,
          121,
          122,
          123,
          124,
          125,
          126,
          127,
          128,
          129,
          130,
          131,
          132,
          133,
          134,
          135,
          136,
          137,
          138,
          139,
          140,
          141,
          142,
          143,
          144,
          145,
          146,
          147,
          148,
          149,
          150,
          151,
          152,
          153,
          154,
          155,
          156,
          157,
          158,
          159,
          160,
          161,
          162,
          163,
          164
        ],
        "WindowCenter": [
          1036.0,
          1039.0,
          1038.0,
          1037.0,
          1037.0,
          1036.0,
          1037.0,
          1036.0,
          1035.0,
          1038.0,
          1036.0,
          1037.0,
          1035.0,
          1036.0,
          1035.0,
          1036.0,
          1038.0,
          1036.0,
          1035.0,
          1035.0,
          1036.0,
          1035.0,
          1036.0,
          1036.0,
          1036.0,
          1036.0,
          1036.0,
          1038.0,
          1038.0,
          1037.0,
          1035.0,
          1036.0,
          1038.0,
          1037.0,
          1034.0,
          1035.0,
          1037.0,
          1036.0,
          1037.0,
          1035.0,
          1035.0,
          1035.0,
          1035.0,
          1037.0,
          1037.0,
          1037.0,
          1036.0,
          1037.0,
          1037.0,
          1036.0,
          1038.0,
          1036.0,
          1035.0,
          1034.0,
          1036.0,
          1036.0,
          1036.0,
          1034.0,
          1035.0,
          1037.0,
          1035.0,
          1036.0,
          1036.0,
          1037.0,
          1037.0,
          1037.0,
          1037.0,
          1037.0,
          1038.0,
          1036.0,
          1036.0,
          1037.0,
          1040.0,
          1037.0,
          1036.0,
          1035.0,
          1037.0,
          1036.0,
          1037.0,
          1037.0,
          1035.0,
          1037.0,
          1037.0,
          1036.0,
          1037.0,
          1038.0,
          1037.0,
          1038.0,
          1038.0,
          1038.0,
          1037.0,
          1036.0,
          1036.0,
          1035.0,
          1036.0,
          1037.0,
          1037.0,
          1037.0,
          1037.0,
          1037.0,
          1037.0,
          1037.0,
          1036.0,
          1036.0,
          1037.0,
          1038.0,
          1037.0,
          1037.0,
          1037.0,
          1037.0,
          1038.0,
          1036.0,
          1036.0,
          1037.0,
          1037.0,
          1037.0,
          1037.0,
          1037.0,
          1037.0,
          1037.0,
          1036.0,
          1037.0,
          1037.0,
          1037.0,
          1038.0,
          1040.0,
          1039.0,
          1036.0,
          1035.0,
          1039.0,
          1041.0,
          1038.0,
          1036.0,
          1037.0,
          1037.0,
          1038.0,
          1036.0,
          1036.0,
          1036.0,
          1037.0,
          1037.0,
          1037.0,
          1037.0,
          1037.0,
          1037.0,
          1039.0,
          1037.0,
          1037.0,
          1038.0,
          1037.0,
          1037.0,
          1036.0,
          1035.0,
          1036.0,
          1037.0,
          1036.0,
          1036.0,
          1036.0,
          1036.0,
          1037.0,
          1036.0,
          1036.0,
          1038.0,
          1038.0
        ],
        "WindowWidth": [
          2740.0,
          2752.0,
          2745.0,
          2743.0,
          2742.0,
          2738.0,
          2748.0,
          2740.0,
          2743.0,
          2749.0,
          2745.0,
          2749.0,
          2739.0,
          2750.0,
          2737.0,
          2749.0,
          2752.0,
          2739.0,
          2742.0,
          2740.0,
          2744.0,
          2735.0,
          2748.0,
          2741.0,
          2741.0,
          2735.0,
          2742.0,
          2750.0,
          2749.0,
          2746.0,
          2735.0,
          2751.0,
          2754.0,
          2746.0,
          2733.0,
          2746.0,
          2752.0,
          2747.0,
          2745.0,
          2739.0,
          2739.0,
          2739.0,
          2744.0,
          2751.0,
          2749.0,
          2751.0,
          2746.0,
          2750.0,
          2746.0,
          2748.0,
          2753.0,
          2747.0,
          2740.0,
          2738.0,
          2752.0,
          2749.0,
          2744.0,
          2732.0,
          2747.0,
          2750.0,
          2741.0,
          2749.0,
          2744.0,
          2750.0,
          2743.0,
          2747.0,
          2746.0,
          2750.0,
          2748.0,
          2745.0,
          2748.0,
          2751.0,
          2762.0,
          2747.0,
          2747.0,
          2746.0,
          2758.0,
          2747.0,
          2751.0,
          2743.0,
          2739.0,
          2749.0,
