{
  "aor": 0.0014484756097560977,
  "aqi": 0.003295613048780487,
  "bids_meta": {
    "AcquisitionMatrixPE": 96,
    "AcquisitionNumber": 1,
    "AcquisitionTime": "14:28:8.240000",
    "BandwidthPerPixelPhaseEncode": 52.083,
    "BaseResolution": 96,
    "BodyPartExamined": "HEAD",
    "ConversionSoftware": "dcm2niix",
    "ConversionSoftwareVersion": "v1.0.20180622 GCC6.3.0",
    "DerivedVendorReportedEchoSpacing": 0.000600004,
    "DeviceSerialNumber": "18926",
    "DwellTime": 2.6e-06,
    "EchoTime": 0.025,
    "EffectiveEchoSpacing": 0.000200001,
    "FlipAngle": 50,
    "ImageOrientationPatientDICOM": [
      0.999992,
      0.00067012,
      0.00404905,
      2.11009e-10,
      0.98658,
      -0.16328
    ],
    "ImageType": [
      "ORIGINAL",
      "PRIMARY",
      "M",
      "ND",
      "ECHO",
      "00",
      "MOSAIC"
    ],
    "InPlanePhaseEncodingDirectionDICOM": "ROW",
    "InstitutionName": "NIMH",
    "InstitutionalDepartmentName": "Department",
    "MRAcquisitionType": "2D",
    "MagneticFieldStrength": 6.98,
    "Manufacturer": "Siemens",
    "ManufacturersModelName": "Investigational_Device_7T",
    "Modality": "MR",
    "ParallelReductionFactorInPlane": 3,
    "PartialFourier": 1,
    "PatientPosition": "HFS",
    "PercentPhaseFOV": 100,
    "PhaseEncodingDirection": "i",
    "PhaseEncodingSteps": 94,
    "PhaseResolution": 1,
    "PixelBandwidth": 2003,
    "ProcedureStepDescription": "MRI_Procedure_Limited",
    "ProtocolName": "NIH_EPI_2.0iso_TR2_Run13",
    "PulseSequenceDetails": "%CustomerSeq%_inati_nih_epi",
    "ReceiveCoilName": "32Ch_Head_7T",
    "ReconMatrixPE": 96,
    "RepetitionTime": 2,
    "SAR": 0.0772875,
    "ScanningSequence": "EP",
    "SequenceName": "epfid2d1_96",
    "SequenceVariant": "SK",
    "SeriesDescription": "NIH_EPI_2.0iso_TR2_Run13",
    "SeriesNumber": 17,
    "ShimSetting": [
      -82,
      284,
      1186,
      1731,
      -62,
      609,
      209,
      -258
    ],
    "SliceThickness": 2,
    "SliceTiming": [
      1.005,
      0,
      1.0425,
      0.0375,
      1.08,
      0.075,
      1.115,
      0.1125,
      1.1525,
      0.15,
      1.19,
      0.1875,
      1.2275,
      0.2225,
      1.265,
      0.26,
      1.3025,
      0.2975,
      1.34,
      0.335,
      1.375,
      0.3725,
      1.4125,
      0.41,
      1.45,
      0.4475,
      1.4875,
      0.485,
      1.525,
      0.52,
      1.5625,
      0.5575,
      1.6,
      0.595,
      1.6375,
      0.6325,
      1.6725,
      0.67,
      1.71,
      0.7075,
      1.7475,
      0.745,
      1.785,
      0.7825,
      1.8225,
      0.8175,
      1.86,
      0.855,
      1.8975,
      0.8925,
      1.935,
      0.93,
      1.97,
      0.9675
    ],
    "SoftwareVersions": "syngo_MR_B17",
    "SpacingBetweenSlices": 2,
    "StationName": "FMRIFD7T",
    "TaskName": "FullFovNoAttentionTask",
    "TotalReadoutTime": 0.0190001,
    "TxRefAmp": 279,
    "dataset": "ds001555",
    "dcmmeta_affine": [
      [
        -1.9999831914901733,
        4.2201880878778297e-10,
        0.008208253420889378,
        95.76705169677734
      ],
      [
        -0.0013402394251897931,
        1.973159670829773,
        -0.32655632495880127,
        -61.09407043457031
      ],
      [
        0.008098097518086433,
        0.32655906677246094,
        1.9731431007385254,
        -53.04020690917969
      ],
      [
        0.0,
        0.0,
        0.0,
        1.0
      ]
    ],
    "dcmmeta_reorient_transform": [
      [
        0.0,
        -1.0,
        0.0,
        95.0
      ],
      [
        1.0,
        0.0,
        0.0,
        0.0
      ],
      [
        0.0,
        0.0,
        1.0,
        0.0
      ],
      [
        0.0,
        0.0,
        0.0,
        1.0
      ]
    ],
    "dcmmeta_shape": [
      96,
      96,
      54,
      164
    ],
    "dcmmeta_slice_dim": 2,
    "dcmmeta_version": 0.6,
    "global": {
      "const": {
        "AcquisitionMatrix": [
          0,
          96,
          96,
          0
        ],
        "Allergies": "No Known Allergies",
        "AngioFlag": "N",
        "BitsAllocated": 16,
        "BitsStored": 12,
        "BodyPartExamined": "HEAD",
        "Columns": 768,
        "EchoNumbers": 1,
        "EchoTime": 25.0,
        "EchoTrainLength": 1,
        "FlipAngle": 50.0,
        "HighBit": 11,
        "ImageOrientationPatient": [
          0.99999157803662,
          0.00067011969073,
          0.00404904870684,
          2.110094e-10,
          0.98657984636313,
          -0.1632795356133
        ],
        "ImagePositionPatient": [
          -767.761392775,
          -789.78807875724,
          84.985791287915
        ],
        "ImageType": [
          "ORIGINAL",
          "PRIMARY",
          "M",
          "ND",
          "ECHO_00",
          "MOSAIC"
        ],
        "ImagedNucleus": "1H",
        "ImagingFrequency": 297.205205,
        "InPlanePhaseEncodingDirection": "ROW",
        "LargestImagePixelValue": 4095,
        "MRAcquisitionType": "2D",
        "MagneticFieldStrength": 6.98,
        "Manufacturer": "SIEMENS",
        "ManufacturerModelName": "Investigational_Device_7T",
        "Modality": "MR",
        "NumberOfAverages": 1.0,
        "NumberOfPhaseEncodingSteps": 94,
        "PercentPhaseFieldOfView": 100.0,
        "PercentSampling": 100.0,
        "PerformedProcedureStepStartTime": "125606.015000",
        "PhotometricInterpretation": "MONOCHROME2",
        "PixelBandwidth": 2003.0,
        "PixelRepresentation": 0,
        "PixelSpacing": [
          2.0,
          2.0
        ],
        "PositionReferenceIndicator": "",
        "ProcedureCodeSequence": [
          {
            "CodeMeaning": "MRI Procedure Limited",
            "CodeValue": "MI01491",
            "CodingSchemeDesignator": "USA Standard",
            "ContextIdentifier": "4000111519"
          }
        ],
        "ProtocolName": "NIH_EPI_2.0iso_TR2_Run13",
        "ReferencedStudySequence": [
          {
            "ReferencedSOPClassUID": "1.2.840.10008.3.1.2.3.1",
            "ReferencedSOPInstanceUID": "1.2.840.113564.9.1.2723958737.61.2.5000077300"
          }
        ],
        "RepetitionTime": 2000.0,
        "RequestedProcedureCodeSequence": [
          {
            "CodeMeaning": "MRI Procedure Limited",
            "CodeValue": "MI01491",
            "CodingSchemeDesignator": "USA Standard",
            "ContextIdentifier": "4000111519"
          }
        ],
        "RequestingService": "MHED",
        "Rows": 768,
        "SAR": 0.07728754046703,
        "SamplesPerPixel": 1,
        "ScanningSequence": "EP",
        "SequenceName": "epfid2d1_96",
        "SequenceVariant": "SK",
        "SeriesDescription": "NIH_EPI_2.0iso_TR2_Run13",
        "SeriesNumber": 17,
        "SliceLocation": -41.959591880066,
        "SliceThickness": 2.0,
        "SmallestImagePixelValue": 0,
        "SoftwareVersions": "syngo MR B17",
        "SpacingBetweenSlices": 2.0000000184226,
        "TransmitCoilName": "32Ch_Head_7T",
        "VariableFlipAngleFlag": "N",
        "WindowCenterWidthExplanation": "Algo1",
        "dBdt": 0.0
      },
      "slices": {}
    },
    "modality": "bold",
    "run_id": 14,
    "session_id": "07",
    "subject_id": "002",
    "task_id": "FullFovNoAttentionTask",
    "time": {
      "samples": {
        "AcquisitionNumber": [
          1,
          2,
          3,
          4,
          5,
          6,
          7,
          8,
          9,
          10,
          11,
          12,
          13,
          14,
          15,
          16,
          17,
          18,
          19,
          20,
          21,
          22,
          23,
          24,
          25,
          26,
          27,
          28,
          29,
          30,
          31,
          32,
          33,
          34,
          35,
          36,
          37,
          38,
          39,
          40,
          41,
          42,
          43,
          44,
          45,
          46,
          47,
          48,
          49,
          50,
          51,
          52,
          53,
          54,
          55,
          56,
          57,
          58,
          59,
          60,
          61,
          62,
          63,
          64,
          65,
          66,
          67,
          68,
          69,
          70,
          71,
          72,
          73,
          74,
          75,
          76,
          77,
          78,
          79,
          80,
          81,
          82,
          83,
          84,
          85,
          86,
          87,
          88,
          89,
          90,
          91,
          92,
          93,
          94,
          95,
          96,
          97,
          98,
          99,
          100,
          101,
          102,
          103,
          104,
          105,
          106,
          107,
          108,
          109,
          110,
          111,
          112,
          113,
          114,
          115,
          116,
          117,
          118,
          119,
          120,
          121,
          122,
          123,
          124,
          125,
          126,
          127,
          128,
          129,
          130,
          131,
          132,
          133,
          134,
          135,
          136,
          137,
          138,
          139,
          140,
          141,
          142,
          143,
          144,
          145,
          146,
          147,
          148,
          149,
          150,
          151,
          152,
          153,
          154,
          155,
          156,
          157,
          158,
          159,
          160,
          161,
          162,
          163,
          164
        ],
        "AcquisitionTime": [
          "142808.240000",
          "142812.255000",
          "142814.262500",
          "142816.272500",
          "142818.280000",
          "142820.287500",
          "142822.295000",
          "142824.302500",
          "142826.312500",
          "142828.320000",
          "142830.327500",
          "142832.335000",
          "142834.345000",
          "142836.352500",
          "142838.360000",
          "142840.367500",
          "142842.375000",
          "142844.385000",
          "142846.392500",
          "142848.400000",
          "142850.407500",
          "142852.415000",
          "142854.425000",
          "142856.432500",
          "142858.440000",
          "142900.447500",
          "142902.457500",
          "142904.465000",
          "142906.472500",
          "142908.480000",
          "142910.487500",
          "142912.497500",
          "142914.505000",
          "142916.512500",
          "142918.520000",
          "142920.527500",
          "142922.537500",
          "142924.545000",
          "142926.552500",
          "142928.560000",
          "142930.570000",
          "142932.577500",
          "142934.585000",
          "142936.592500",
          "142938.600000",
          "142940.610000",
          "142942.617500",
          "142944.625000",
          "142946.632500",
          "142948.640000",
          "142950.650000",
          "142952.657500",
          "142954.665000",
          "142956.672500",
          "142958.680000",
          "143000.690000",
          "143002.697500",
          "143004.705000",
          "143006.712500",
          "143008.722500",
          "143010.730000",
          "143012.737500",
          "143014.745000",
          "143016.752500",
          "143018.762500",
          "143020.770000",
          "143022.777500",
          "143024.785000",
          "143026.792500",
          "143028.802500",
          "143030.810000",
          "143032.817500",
          "143034.825000",
          "143036.835000",
          "143038.842500",
          "143040.850000",
          "143042.857500",
          "143044.865000",
          "143046.875000",
          "143048.882500",
          "143050.890000",
          "143052.897500",
          "143054.905000",
          "143056.915000",
          "143058.922500",
          "143100.930000",
          "143102.937500",
          "143104.947500",
          "143106.955000",
          "143108.962500",
          "143110.970000",
          "143112.977500",
          "143114.987500",
          "143116.995000",
          "143119.002500",
          "143121.010000",
          "143123.017500",
          "143125.027500",
          "143127.035000",
          "143129.042500",
          "143131.050000",
          "143133.057500",
          "143135.067500",
          "143137.075000",
          "143139.082500",
          "143141.090000",
          "143143.100000",
          "143145.107500",
          "143147.115000",
          "143149.122500",
          "143151.130000",
          "143153.140000",
          "143155.147500",
          "143157.155000",
          "143159.162500",
          "143201.170000",
          "143203.180000",
          "143205.187500",
          "143207.195000",
          "143209.202500",
          "143211.212500",
          "143213.220000",
          "143215.227500",
          "143217.235000",
          "143219.242500",
          "143221.252500",
          "143223.260000",
          "143225.267500",
          "143227.275000",
          "143229.282500",
          "143231.292500",
          "143233.300000",
          "143235.307500",
          "143237.315000",
          "143239.325000",
          "143241.332500",
          "143243.340000",
          "143245.347500",
          "143247.355000",
          "143249.365000",
          "143251.372500",
          "143253.380000",
          "143255.387500",
          "143257.395000",
          "143259.405000",
          "143301.412500",
          "143303.420000",
          "143305.427500",
          "143307.435000",
          "143309.445000",
          "143311.452500",
          "143313.460000",
          "143315.467500",
          "143317.477500",
          "143319.485000",
          "143321.492500",
          "143323.500000",
          "143325.507500",
          "143327.517500",
          "143329.525000",
          "143331.532500",
          "143333.540000",
          "143335.547500",
          "143337.557500"
        ],
        "ContentTime": [
          "142857.937000",
          "142857.937000",
          "142857.937000",
          "142857.937000",
          "142857.937000",
          "142857.937000",
          "142857.953000",
          "142857.953000",
          "142857.953000",
          "142857.953000",
          "142857.968000",
          "142857.968000",
          "142857.968000",
          "142857.968000",
          "142857.968000",
          "142857.984000",
          "142857.984000",
          "142857.984000",
          "142857.984000",
          "142857.984000",
          "142857.984000",
          "142857.984000",
          "142858.000000",
          "142858.000000",
          "142917.921000",
          "142917.921000",
          "142917.921000",
          "142917.937000",
          "142917.937000",
          "142917.937000",
          "142917.937000",
          "142917.937000",
          "142917.937000",
          "142917.953000",
          "142957.921000",
          "142957.921000",
          "142957.921000",
          "142957.921000",
          "142957.937000",
          "142957.937000",
          "142957.937000",
          "142957.937000",
          "142957.937000",
          "142957.937000",
          "142957.937000",
          "142957.953000",
          "142957.953000",
          "142957.953000",
          "142957.953000",
          "142957.953000",
          "142957.953000",
          "142957.953000",
          "142957.968000",
          "142957.968000",
          "143037.921000",
          "143037.921000",
          "143037.921000",
          "143037.921000",
          "143037.937000",
          "143037.937000",
          "143037.937000",
          "143037.937000",
          "143037.953000",
          "143037.953000",
          "143037.953000",
          "143037.953000",
          "143037.968000",
          "143037.968000",
          "143037.968000",
          "143037.968000",
          "143037.968000",
          "143037.968000",
          "143037.968000",
          "143037.984000",
          "143117.921000",
          "143117.921000",
          "143117.921000",
          "143117.921000",
          "143117.937000",
          "143117.937000",
          "143117.937000",
          "143117.937000",
          "143117.937000",
          "143117.937000",
          "143117.937000",
          "143117.953000",
          "143117.953000",
          "143117.953000",
          "143117.953000",
          "143117.953000",
          "143117.968000",
          "143117.968000",
          "143117.968000",
          "143117.968000",
          "143157.921000",
          "143157.921000",
          "143157.921000",
          "143157.937000",
          "143157.937000",
          "143157.937000",
          "143157.937000",
          "143157.937000",
          "143157.937000",
          "143157.953000",
          "143157.953000",
          "143157.953000",
          "143157.953000",
          "143157.953000",
          "143157.953000",
          "143157.953000",
          "143157.968000",
          "143157.968000",
          "143157.968000",
          "143157.968000",
          "143237.921000",
          "143237.921000",
          "143237.921000",
          "143237.921000",
          "143237.937000",
          "143237.937000",
          "143237.937000",
          "143237.937000",
          "143237.937000",
          "143237.937000",
          "143237.937000",
          "143237.953000",
          "143237.953000",
          "143237.953000",
          "143237.953000",
          "143237.953000",
          "143237.953000",
          "143237.968000",
          "143237.968000",
          "143237.968000",
          "143317.921000",
          "143317.921000",
          "143317.921000",
          "143317.921000",
          "143317.937000",
          "143317.937000",
          "143317.937000",
          "143317.937000",
          "143317.937000",
          "143317.937000",
          "143317.937000",
          "143317.953000",
          "143317.953000",
          "143317.953000",
          "143317.953000",
          "143317.953000",
          "143317.953000",
          "143317.968000",
          "143317.968000",
          "143317.968000",
          "143337.500000",
          "143337.500000",
          "143337.500000",
          "143337.500000",
          "143337.500000",
          "143337.515000",
          "143337.515000",
          "143337.515000",
          "143337.515000",
          "143337.515000"
        ],
        "InstanceCreationTime": [
          "142857.937000",
          "142857.937000",
          "142857.937000",
          "142857.937000",
          "142857.937000",
          "142857.937000",
          "142857.953000",
          "142857.953000",
          "142857.953000",
          "142857.953000",
          "142857.968000",
          "142857.968000",
          "142857.968000",
          "142857.968000",
          "142857.968000",
          "142857.984000",
          "142857.984000",
          "142857.984000",
          "142857.984000",
          "142857.984000",
          "142857.984000",
          "142857.984000",
          "142858.000000",
          "142858.000000",
          "142917.921000",
          "142917.921000",
          "142917.921000",
          "142917.937000",
          "142917.937000",
          "142917.937000",
          "142917.937000",
          "142917.937000",
          "142917.937000",
          "142917.953000",
          "142957.921000",
          "142957.921000",
          "142957.921000",
          "142957.921000",
          "142957.937000",
          "142957.937000",
          "142957.937000",
          "142957.937000",
          "142957.937000",
          "142957.937000",
          "142957.937000",
          "142957.953000",
          "142957.953000",
          "142957.953000",
          "142957.953000",
          "142957.953000",
          "142957.953000",
          "142957.953000",
          "142957.968000",
          "142957.968000",
          "143037.921000",
          "143037.921000",
          "143037.921000",
          "143037.921000",
          "143037.937000",
          "143037.937000",
          "143037.937000",
          "143037.937000",
          "143037.953000",
          "143037.953000",
          "143037.953000",
          "143037.953000",
          "143037.968000",
          "143037.968000",
          "143037.968000",
          "143037.968000",
          "143037.968000",
          "143037.968000",
          "143037.968000",
          "143037.984000",
          "143117.921000",
          "143117.921000",
          "143117.921000",
          "143117.921000",
          "143117.937000",
          "143117.937000",
          "143117.937000",
          "143117.937000",
          "143117.937000",
          "143117.937000",
          "143117.937000",
          "143117.953000",
          "143117.953000",
          "143117.953000",
          "143117.953000",
          "143117.953000",
          "143117.968000",
          "143117.968000",
          "143117.968000",
          "143117.968000",
          "143157.921000",
          "143157.921000",
          "143157.921000",
          "143157.937000",
          "143157.937000",
          "143157.937000",
          "143157.937000",
          "143157.937000",
          "143157.937000",
          "143157.953000",
          "143157.953000",
          "143157.953000",
          "143157.953000",
          "143157.953000",
          "143157.953000",
          "143157.953000",
          "143157.968000",
          "143157.968000",
          "143157.968000",
          "143157.968000",
          "143237.921000",
          "143237.921000",
          "143237.921000",
          "143237.921000",
          "143237.937000",
          "143237.937000",
          "143237.937000",
          "143237.937000",
          "143237.937000",
          "143237.937000",
          "143237.937000",
          "143237.953000",
          "143237.953000",
          "143237.953000",
          "143237.953000",
          "143237.953000",
          "143237.953000",
          "143237.968000",
          "143237.968000",
          "143237.968000",
          "143317.921000",
          "143317.921000",
          "143317.921000",
          "143317.921000",
          "143317.937000",
          "143317.937000",
          "143317.937000",
          "143317.937000",
          "143317.937000",
          "143317.937000",
          "143317.937000",
          "143317.953000",
          "143317.953000",
          "143317.953000",
          "143317.953000",
          "143317.953000",
          "143317.953000",
          "143317.968000",
          "143317.968000",
          "143317.968000",
          "143337.500000",
          "143337.500000",
          "143337.500000",
          "143337.500000",
          "143337.500000",
          "143337.515000",
          "143337.515000",
          "143337.515000",
          "143337.515000",
          "143337.515000"
        ],
        "InstanceNumber": [
          1,
          2,
          3,
          4,
          5,
          6,
          7,
          8,
          9,
          10,
          11,
          12,
          13,
          14,
          15,
          16,
          17,
          18,
          19,
          20,
          21,
          22,
          23,
          24,
          25,
          26,
          27,
          28,
          29,
          30,
          31,
          32,
          33,
          34,
          35,
          36,
          37,
          38,
          39,
          40,
          41,
          42,
          43,
          44,
          45,
          46,
          47,
          48,
          49,
          50,
          51,
          52,
          53,
          54,
          55,
          56,
          57,
          58,
          59,
          60,
          61,
          62,
          63,
          64,
          65,
          66,
          67,
          68,
          69,
          70,
          71,
          72,
          73,
          74,
          75,
          76,
          77,
          78,
          79,
          80,
          81,
          82,
          83,
          84,
          85,
          86,
          87,
          88,
          89,
          90,
          91,
          92,
          93,
          94,
          95,
          96,
          97,
          98,
          99,
          100,
          101,
          102,
          103,
          104,
          105,
          106,
          107,
          108,
          109,
          110,
          111,
          112,
          113,
          114,
          115,
          116,
          117,
          118,
          119,
          120,
          121,
          122,
          123,
          124,
          125,
          126,
          127,
          128,
          129,
          130,
          131,
          132,
          133,
          134,
          135,
          136,
          137,
          138,
          139,
          140,
          141,
          142,
          143,
          144,
          145,
          146,
          147,
          148,
          149,
          150,
          151,
          152,
          153,
          154,
          155,
          156,
          157,
          158,
          159,
          160,
          161,
          162,
          163,
          164
        ],
        "WindowCenter": [
          1036.0,
          1035.0,
          1034.0,
          1034.0,
          1034.0,
          1031.0,
          1030.0,
          1033.0,
          1033.0,
          1033.0,
          1033.0,
          1033.0,
          1035.0,
          1033.0,
          1033.0,
          1034.0,
          1034.0,
          1033.0,
          1031.0,
          1033.0,
          1038.0,
          1035.0,
          1031.0,
          1033.0,
          1031.0,
          1032.0,
          1033.0,
          1033.0,
          1032.0,
          1033.0,
          1033.0,
          1036.0,
          1033.0,
          1033.0,
          1034.0,
          1032.0,
          1032.0,
          1034.0,
          1035.0,
          1034.0,
          1034.0,
          1033.0,
          1034.0,
          1033.0,
          1034.0,
          1035.0,
          1033.0,
          1036.0,
          1033.0,
          1034.0,
          1034.0,
          1033.0,
          1034.0,
          1033.0,
          1034.0,
          1032.0,
          1032.0,
          1033.0,
          1032.0,
          1032.0,
          1033.0,
          1033.0,
          1032.0,
          1032.0,
          1033.0,
          1033.0,
          1034.0,
          1033.0,
          1032.0,
          1034.0,
          1035.0,
          1034.0,
          1032.0,
          1032.0,
          1036.0,
          1033.0,
          1035.0,
          1034.0,
          1032.0,
          1034.0,
          1033.0,
          1032.0,
          1031.0,
          1032.0,
          1032.0,
          1032.0,
          1034.0,
          1033.0,
          1034.0,
          1034.0,
          1035.0,
          1035.0,
          1033.0,
          1034.0,
          1033.0,
          1032.0,
          1033.0,
          1033.0,
          1034.0,
          1033.0,
          1033.0,
          1033.0,
          1032.0,
          1033.0,
          1034.0,
          1034.0,
          1035.0,
          1033.0,
          1034.0,
          1034.0,
          1034.0,
          1032.0,
          1034.0,
          1034.0,
          1033.0,
          1032.0,
          1034.0,
          1033.0,
          1032.0,
          1032.0,
          1032.0,
          1033.0,
          1032.0,
          1031.0,
          1032.0,
          1032.0,
          1033.0,
          1034.0,
          1033.0,
          1035.0,
          1035.0,
          1034.0,
          1033.0,
          1036.0,
          1037.0,
          1036.0,
          1033.0,
          1033.0,
          1037.0,
          1036.0,
          1035.0,
          1033.0,
          1035.0,
          1035.0,
          1034.0,
          1034.0,
          1034.0,
          1035.0,
          1038.0,
          1035.0,
          1034.0,
          1036.0,
          1037.0,
          1034.0,
          1032.0,
          1032.0,
          1034.0,
          1032.0,
          1031.0,
          1033.0,
          1031.0,
          1033.0,
          1035.0,
          1034.0
        ],
        "WindowWidth": [
          2725.0,
          2734.0,
          2736.0,
          2727.0,
          2724.0,
          2711.0,
          2712.0,
          2729.0,
          2723.0,
          2728.0,
          2725.0,
          2727.0,
          2734.0,
          2722.0,
          2726.0,
          2729.0,
          2725.0,
          2724.0,
          2717.0,
          2730.0,
          2744.0,
          2725.0,
          2714.0,
          2722.0,
          2717.0,
          2727.0,
          2723.0,
          2720.0,
          2724.0,
          2721.0,
          2724.0,
          2733.0,
          2726.0,
          2731.0,
          2729.0,
          2723.0,
          2717.0,
          2732.0,
          2728.0,
          2727.0,
          2721.0,
          2721.0,
          2728.0,
          2725.0,
          2730.0,
          2728.0,
          2724.0,
          2735.0,
          2722.0,
          2734.0,
          2728.0,
          2726.0,
          2732.0,
          2725.0,
          2731.0,
          2720.0,
          2726.0,
          2724.0,
          2721.0,
          2727.0,
          2721.0,
          2729.0,
          2721.0,
          2718.0,
          2728.0,
          2724.0,
          2733.0,
          2721.0,
          2719.0,
          2731.0,
          2737.0,
          2728.0,
          2717.0,
          2725.0,
          2733.0,
          2722.0,
          2732.0,
          2725.0,
          2723.0,
          2728.0,
          2721.0,
          2725.0,
