{
  "aor": 0.001159329268292683,
  "aqi": 0.004713038963414634,
  "bids_meta": {
    "AcquisitionMatrixPE": 96,
    "AcquisitionNumber": 1,
    "AcquisitionTime": "13:31:12.682500",
    "BandwidthPerPixelPhaseEncode": 52.083,
    "BaseResolution": 96,
    "BodyPartExamined": "HEAD",
    "ConversionSoftware": "dcm2niix",
    "ConversionSoftwareVersion": "v1.0.20180622 GCC6.3.0",
    "DerivedVendorReportedEchoSpacing": 0.000600004,
    "DeviceSerialNumber": "18926",
    "DwellTime": 2.6e-06,
    "EchoTime": 0.025,
    "EffectiveEchoSpacing": 0.000200001,
    "FlipAngle": 50,
    "ImageOrientationPatientDICOM": [
      0.999992,
      0.00067012,
      0.00404905,
      2.11009e-10,
      0.98658,
      -0.16328
    ],
    "ImageType": [
      "ORIGINAL",
      "PRIMARY",
      "M",
      "ND",
      "ECHO",
      "00",
      "MOSAIC"
    ],
    "InPlanePhaseEncodingDirectionDICOM": "ROW",
    "InstitutionName": "NIMH",
    "InstitutionalDepartmentName": "Department",
    "MRAcquisitionType": "2D",
    "MagneticFieldStrength": 6.98,
    "Manufacturer": "Siemens",
    "ManufacturersModelName": "Investigational_Device_7T",
    "Modality": "MR",
    "ParallelReductionFactorInPlane": 3,
    "PartialFourier": 1,
    "PatientPosition": "HFS",
    "PercentPhaseFOV": 100,
    "PhaseEncodingDirection": "i",
    "PhaseEncodingSteps": 94,
    "PhaseResolution": 1,
    "PixelBandwidth": 2003,
    "ProcedureStepDescription": "MRI_Procedure_Limited",
    "ProtocolName": "NIH_EPI_2.0iso_TR2_Run04",
    "PulseSequenceDetails": "%CustomerSeq%_inati_nih_epi",
    "ReceiveCoilName": "32Ch_Head_7T",
    "ReconMatrixPE": 96,
    "RepetitionTime": 2,
    "SAR": 0.0772875,
    "ScanningSequence": "EP",
    "SequenceName": "epfid2d1_96",
    "SequenceVariant": "SK",
    "SeriesDescription": "NIH_EPI_2.0iso_TR2_Run04",
    "SeriesNumber": 8,
    "ShimSetting": [
      -82,
      284,
      1186,
      1731,
      -62,
      609,
      209,
      -258
    ],
    "SliceThickness": 2,
    "SliceTiming": [
      1.005,
      0,
      1.0425,
      0.0375,
      1.0775,
      0.075,
      1.115,
      0.1125,
      1.1525,
      0.15,
      1.19,
      0.185,
      1.2275,
      0.2225,
      1.265,
      0.26,
      1.3025,
      0.2975,
      1.3375,
      0.335,
      1.375,
      0.3725,
      1.4125,
      0.41,
      1.45,
      0.4475,
      1.4875,
      0.4825,
      1.525,
      0.52,
      1.5625,
      0.5575,
      1.6,
      0.595,
      1.635,
      0.6325,
      1.6725,
      0.67,
      1.71,
      0.7075,
      1.7475,
      0.745,
      1.785,
      0.78,
      1.8225,
      0.8175,
      1.86,
      0.855,
      1.8975,
      0.8925,
      1.9325,
      0.93,
      1.97,
      0.9675
    ],
    "SoftwareVersions": "syngo_MR_B17",
    "SpacingBetweenSlices": 2,
    "StationName": "FMRIFD7T",
    "TaskName": "FullFovNoAttentionTask",
    "TotalReadoutTime": 0.0190001,
    "TxRefAmp": 279,
    "dataset": "ds001555",
    "dcmmeta_affine": [
      [
        -1.9999831914901733,
        4.2201880878778297e-10,
        0.008208253420889378,
        95.76705169677734
      ],
      [
        -0.0013402394251897931,
        1.973159670829773,
        -0.32655632495880127,
        -61.09407043457031
      ],
      [
        0.008098097518086433,
        0.32655906677246094,
        1.9731431007385254,
        -53.04020690917969
      ],
      [
        0.0,
        0.0,
        0.0,
        1.0
      ]
    ],
    "dcmmeta_reorient_transform": [
      [
        0.0,
        -1.0,
        0.0,
        95.0
      ],
      [
        1.0,
        0.0,
        0.0,
        0.0
      ],
      [
        0.0,
        0.0,
        1.0,
        0.0
      ],
      [
        0.0,
        0.0,
        0.0,
        1.0
      ]
    ],
    "dcmmeta_shape": [
      96,
      96,
      54,
      164
    ],
    "dcmmeta_slice_dim": 2,
    "dcmmeta_version": 0.6,
    "global": {
      "const": {
        "AcquisitionMatrix": [
          0,
          96,
          96,
          0
        ],
        "Allergies": "No Known Allergies",
        "AngioFlag": "N",
        "BitsAllocated": 16,
        "BitsStored": 12,
        "BodyPartExamined": "HEAD",
        "Columns": 768,
        "EchoNumbers": 1,
        "EchoTime": 25.0,
        "EchoTrainLength": 1,
        "FlipAngle": 50.0,
        "HighBit": 11,
        "ImageOrientationPatient": [
          0.99999157803662,
          0.00067011969073,
          0.00404904870684,
          2.110094e-10,
          0.98657984636313,
          -0.1632795356133
        ],
        "ImagePositionPatient": [
          -767.761392775,
          -789.78807875724,
          84.985791287915
        ],
        "ImageType": [
          "ORIGINAL",
          "PRIMARY",
          "M",
          "ND",
          "ECHO_00",
          "MOSAIC"
        ],
        "ImagedNucleus": "1H",
        "ImagingFrequency": 297.20504,
        "InPlanePhaseEncodingDirection": "ROW",
        "LargestImagePixelValue": 4095,
        "MRAcquisitionType": "2D",
        "MagneticFieldStrength": 6.98,
        "Manufacturer": "SIEMENS",
        "ManufacturerModelName": "Investigational_Device_7T",
        "Modality": "MR",
        "NumberOfAverages": 1.0,
        "NumberOfPhaseEncodingSteps": 94,
        "PercentPhaseFieldOfView": 100.0,
        "PercentSampling": 100.0,
        "PerformedProcedureStepStartTime": "125606.015000",
        "PhotometricInterpretation": "MONOCHROME2",
        "PixelBandwidth": 2003.0,
        "PixelRepresentation": 0,
        "PixelSpacing": [
          2.0,
          2.0
        ],
        "PositionReferenceIndicator": "",
        "ProcedureCodeSequence": [
          {
            "CodeMeaning": "MRI Procedure Limited",
            "CodeValue": "MI01491",
            "CodingSchemeDesignator": "USA Standard",
            "ContextIdentifier": "4000111519"
          }
        ],
        "ProtocolName": "NIH_EPI_2.0iso_TR2_Run04",
        "ReferencedStudySequence": [
          {
            "ReferencedSOPClassUID": "1.2.840.10008.3.1.2.3.1",
            "ReferencedSOPInstanceUID": "1.2.840.113564.9.1.2723958737.61.2.5000077300"
          }
        ],
        "RepetitionTime": 2000.0,
        "RequestedProcedureCodeSequence": [
          {
            "CodeMeaning": "MRI Procedure Limited",
            "CodeValue": "MI01491",
            "CodingSchemeDesignator": "USA Standard",
            "ContextIdentifier": "4000111519"
          }
        ],
        "RequestingService": "MHED",
        "Rows": 768,
        "SAR": 0.07728754046703,
        "SamplesPerPixel": 1,
        "ScanningSequence": "EP",
        "SequenceName": "epfid2d1_96",
        "SequenceVariant": "SK",
        "SeriesDescription": "NIH_EPI_2.0iso_TR2_Run04",
        "SeriesNumber": 8,
        "SliceLocation": -41.959591880066,
        "SliceThickness": 2.0,
        "SmallestImagePixelValue": 0,
        "SoftwareVersions": "syngo MR B17",
        "SpacingBetweenSlices": 2.0000000184226,
        "TransmitCoilName": "32Ch_Head_7T",
        "VariableFlipAngleFlag": "N",
        "WindowCenterWidthExplanation": "Algo1",
        "dBdt": 0.0
      },
      "slices": {}
    },
    "modality": "bold",
    "run_id": 5,
    "session_id": "07",
    "subject_id": "002",
    "task_id": "FullFovNoAttentionTask",
    "time": {
      "samples": {
        "AcquisitionNumber": [
          1,
          2,
          3,
          4,
          5,
          6,
          7,
          8,
          9,
          10,
          11,
          12,
          13,
          14,
          15,
          16,
          17,
          18,
          19,
          20,
          21,
          22,
          23,
          24,
          25,
          26,
          27,
          28,
          29,
          30,
          31,
          32,
          33,
          34,
          35,
          36,
          37,
          38,
          39,
          40,
          41,
          42,
          43,
          44,
          45,
          46,
          47,
          48,
          49,
          50,
          51,
          52,
          53,
          54,
          55,
          56,
          57,
          58,
          59,
          60,
          61,
          62,
          63,
          64,
          65,
          66,
          67,
          68,
          69,
          70,
          71,
          72,
          73,
          74,
          75,
          76,
          77,
          78,
          79,
          80,
          81,
          82,
          83,
          84,
          85,
          86,
          87,
          88,
          89,
          90,
          91,
          92,
          93,
          94,
          95,
          96,
          97,
          98,
          99,
          100,
          101,
          102,
          103,
          104,
          105,
          106,
          107,
          108,
          109,
          110,
          111,
          112,
          113,
          114,
          115,
          116,
          117,
          118,
          119,
          120,
          121,
          122,
          123,
          124,
          125,
          126,
          127,
          128,
          129,
          130,
          131,
          132,
          133,
          134,
          135,
          136,
          137,
          138,
          139,
          140,
          141,
          142,
          143,
          144,
          145,
          146,
          147,
          148,
          149,
          150,
          151,
          152,
          153,
          154,
          155,
          156,
          157,
          158,
          159,
          160,
          161,
          162,
          163,
          164
        ],
        "AcquisitionTime": [
          "133112.682500",
          "133116.697500",
          "133118.705000",
          "133120.715000",
          "133122.722500",
          "133124.730000",
          "133126.737500",
          "133128.745000",
          "133130.755000",
          "133132.762500",
          "133134.770000",
          "133136.777500",
          "133138.785000",
          "133140.795000",
          "133142.802500",
          "133144.810000",
          "133146.817500",
          "133148.825000",
          "133150.835000",
          "133152.842500",
          "133154.850000",
          "133156.857500",
          "133158.867500",
          "133200.875000",
          "133202.882500",
          "133204.890000",
          "133206.897500",
          "133208.907500",
          "133210.915000",
          "133212.922500",
          "133214.930000",
          "133216.937500",
          "133218.947500",
          "133220.955000",
          "133222.962500",
          "133224.970000",
          "133226.980000",
          "133228.987500",
          "133230.995000",
          "133233.002500",
          "133235.010000",
          "133237.020000",
          "133239.027500",
          "133241.035000",
          "133243.042500",
          "133245.050000",
          "133247.060000",
          "133249.067500",
          "133251.075000",
          "133253.082500",
          "133255.092500",
          "133257.100000",
          "133259.107500",
          "133301.115000",
          "133303.122500",
          "133305.132500",
          "133307.140000",
          "133309.147500",
          "133311.155000",
          "133313.162500",
          "133315.172500",
          "133317.180000",
          "133319.187500",
          "133321.195000",
          "133323.202500",
          "133325.212500",
          "133327.220000",
          "133329.227500",
          "133331.235000",
          "133333.245000",
          "133335.252500",
          "133337.260000",
          "133339.267500",
          "133341.275000",
          "133343.285000",
          "133345.292500",
          "133347.300000",
          "133349.307500",
          "133351.315000",
          "133353.325000",
          "133355.332500",
          "133357.340000",
          "133359.347500",
          "133401.357500",
          "133403.365000",
          "133405.372500",
          "133407.380000",
          "133409.387500",
          "133411.397500",
          "133413.405000",
          "133415.412500",
          "133417.420000",
          "133419.427500",
          "133421.437500",
          "133423.445000",
          "133425.452500",
          "133427.460000",
          "133429.470000",
          "133431.477500",
          "133433.485000",
          "133435.492500",
          "133437.500000",
          "133439.510000",
          "133441.517500",
          "133443.525000",
          "133445.532500",
          "133447.540000",
          "133449.550000",
          "133451.557500",
          "133453.565000",
          "133455.572500",
          "133457.580000",
          "133459.590000",
          "133501.597500",
          "133503.605000",
          "133505.612500",
          "133507.622500",
          "133509.630000",
          "133511.637500",
          "133513.645000",
          "133515.652500",
          "133517.662500",
          "133519.670000",
          "133521.677500",
          "133523.685000",
          "133525.692500",
          "133527.702500",
          "133529.710000",
          "133531.717500",
          "133533.725000",
          "133535.735000",
          "133537.742500",
          "133539.750000",
          "133541.757500",
          "133543.765000",
          "133545.775000",
          "133547.782500",
          "133549.790000",
          "133551.797500",
          "133553.805000",
          "133555.815000",
          "133557.822500",
          "133559.830000",
          "133601.837500",
          "133603.847500",
          "133605.855000",
          "133607.862500",
          "133609.870000",
          "133611.877500",
          "133613.887500",
          "133615.895000",
          "133617.902500",
          "133619.910000",
          "133621.917500",
          "133623.927500",
          "133625.935000",
          "133627.942500",
          "133629.950000",
          "133631.957500",
          "133633.967500",
          "133635.975000",
          "133637.982500",
          "133639.990000",
          "133642.000000"
        ],
        "ContentTime": [
          "133157.937000",
          "133157.937000",
          "133157.937000",
          "133157.937000",
          "133157.953000",
          "133157.953000",
          "133157.953000",
          "133157.953000",
          "133157.953000",
          "133157.953000",
          "133157.953000",
          "133157.968000",
          "133157.968000",
          "133157.968000",
          "133157.968000",
          "133157.968000",
          "133157.968000",
          "133157.968000",
          "133157.984000",
          "133157.984000",
          "133158.000000",
          "133237.921000",
          "133237.921000",
          "133237.937000",
          "133237.937000",
          "133237.937000",
          "133237.937000",
          "133237.937000",
          "133237.937000",
          "133237.937000",
          "133237.953000",
          "133237.953000",
          "133237.953000",
          "133237.953000",
          "133237.953000",
          "133237.953000",
          "133237.968000",
          "133237.968000",
          "133237.968000",
          "133237.968000",
          "133237.968000",
          "133317.921000",
          "133317.921000",
          "133317.937000",
          "133317.937000",
          "133317.937000",
          "133317.937000",
          "133317.937000",
          "133317.937000",
          "133317.937000",
          "133317.953000",
          "133317.953000",
          "133317.953000",
          "133317.953000",
          "133317.953000",
          "133317.953000",
          "133317.968000",
          "133317.968000",
          "133317.968000",
          "133317.968000",
          "133317.984000",
          "133357.921000",
          "133357.921000",
          "133357.937000",
          "133357.937000",
          "133357.937000",
          "133357.937000",
          "133357.937000",
          "133357.953000",
          "133357.953000",
          "133357.953000",
          "133357.953000",
          "133357.953000",
          "133357.953000",
          "133357.953000",
          "133357.968000",
          "133357.968000",
          "133357.968000",
          "133357.968000",
          "133357.968000",
          "133357.984000",
          "133437.921000",
          "133437.921000",
          "133437.937000",
          "133437.937000",
          "133437.937000",
          "133437.937000",
          "133437.937000",
          "133437.937000",
          "133437.937000",
          "133437.953000",
          "133437.953000",
          "133437.953000",
          "133437.953000",
          "133437.953000",
          "133437.953000",
          "133437.968000",
          "133437.968000",
          "133437.968000",
          "133437.968000",
          "133437.968000",
          "133517.921000",
          "133517.921000",
          "133517.937000",
          "133517.937000",
          "133517.937000",
          "133517.937000",
          "133517.937000",
          "133517.953000",
          "133517.953000",
          "133517.953000",
          "133517.953000",
          "133517.953000",
          "133517.953000",
          "133517.953000",
          "133517.968000",
          "133517.968000",
          "133517.968000",
          "133517.968000",
          "133517.968000",
          "133517.968000",
          "133557.921000",
          "133557.937000",
          "133557.937000",
          "133557.937000",
          "133557.937000",
          "133557.937000",
          "133557.937000",
          "133557.953000",
          "133557.953000",
          "133557.953000",
          "133557.953000",
          "133557.953000",
          "133557.953000",
          "133557.953000",
          "133557.968000",
          "133557.968000",
          "133557.968000",
          "133557.968000",
          "133557.968000",
          "133557.968000",
          "133637.921000",
          "133637.937000",
          "133637.937000",
          "133637.937000",
          "133637.937000",
          "133637.937000",
          "133637.937000",
          "133637.953000",
          "133637.953000",
          "133637.953000",
          "133637.968000",
          "133637.968000",
          "133637.968000",
          "133637.968000",
          "133637.984000",
          "133637.984000",
          "133637.984000",
          "133637.984000",
          "133637.984000",
          "133637.984000",
          "133642.140000",
          "133642.140000",
          "133642.140000"
        ],
        "InstanceCreationTime": [
          "133157.937000",
          "133157.937000",
          "133157.937000",
          "133157.937000",
          "133157.953000",
          "133157.953000",
          "133157.953000",
          "133157.953000",
          "133157.953000",
          "133157.953000",
          "133157.953000",
          "133157.968000",
          "133157.968000",
          "133157.968000",
          "133157.968000",
          "133157.968000",
          "133157.968000",
          "133157.968000",
          "133157.984000",
          "133157.984000",
          "133158.000000",
          "133237.921000",
          "133237.921000",
          "133237.937000",
          "133237.937000",
          "133237.937000",
          "133237.937000",
          "133237.937000",
          "133237.937000",
          "133237.937000",
          "133237.953000",
          "133237.953000",
          "133237.953000",
          "133237.953000",
          "133237.953000",
          "133237.953000",
          "133237.968000",
          "133237.968000",
          "133237.968000",
          "133237.968000",
          "133237.968000",
          "133317.921000",
          "133317.921000",
          "133317.937000",
          "133317.937000",
          "133317.937000",
          "133317.937000",
          "133317.937000",
          "133317.937000",
          "133317.937000",
          "133317.953000",
          "133317.953000",
          "133317.953000",
          "133317.953000",
          "133317.953000",
          "133317.953000",
          "133317.968000",
          "133317.968000",
          "133317.968000",
          "133317.968000",
          "133317.984000",
          "133357.921000",
          "133357.921000",
          "133357.937000",
          "133357.937000",
          "133357.937000",
          "133357.937000",
          "133357.937000",
          "133357.953000",
          "133357.953000",
          "133357.953000",
          "133357.953000",
          "133357.953000",
          "133357.953000",
          "133357.953000",
          "133357.968000",
          "133357.968000",
          "133357.968000",
          "133357.968000",
          "133357.968000",
          "133357.984000",
          "133437.921000",
          "133437.921000",
          "133437.937000",
          "133437.937000",
          "133437.937000",
          "133437.937000",
          "133437.937000",
          "133437.937000",
          "133437.937000",
          "133437.953000",
          "133437.953000",
          "133437.953000",
          "133437.953000",
          "133437.953000",
          "133437.953000",
          "133437.968000",
          "133437.968000",
          "133437.968000",
          "133437.968000",
          "133437.968000",
          "133517.921000",
          "133517.921000",
          "133517.937000",
          "133517.937000",
          "133517.937000",
          "133517.937000",
          "133517.937000",
          "133517.953000",
          "133517.953000",
          "133517.953000",
          "133517.953000",
          "133517.953000",
          "133517.953000",
          "133517.953000",
          "133517.968000",
          "133517.968000",
          "133517.968000",
          "133517.968000",
          "133517.968000",
          "133517.968000",
          "133557.921000",
          "133557.937000",
          "133557.937000",
          "133557.937000",
          "133557.937000",
          "133557.937000",
          "133557.937000",
          "133557.953000",
          "133557.953000",
          "133557.953000",
          "133557.953000",
          "133557.953000",
          "133557.953000",
          "133557.953000",
          "133557.968000",
          "133557.968000",
          "133557.968000",
          "133557.968000",
          "133557.968000",
          "133557.968000",
          "133637.921000",
          "133637.937000",
          "133637.937000",
          "133637.937000",
          "133637.937000",
          "133637.937000",
          "133637.937000",
          "133637.953000",
          "133637.953000",
          "133637.953000",
          "133637.968000",
          "133637.968000",
          "133637.968000",
          "133637.968000",
          "133637.984000",
          "133637.984000",
          "133637.984000",
          "133637.984000",
          "133637.984000",
          "133637.984000",
          "133642.140000",
          "133642.140000",
          "133642.140000"
        ],
        "InstanceNumber": [
          1,
          2,
          3,
          4,
          5,
          6,
          7,
          8,
          9,
          10,
          11,
          12,
          13,
          14,
          15,
          16,
          17,
          18,
          19,
          20,
          21,
          22,
          23,
          24,
          25,
          26,
          27,
          28,
          29,
          30,
          31,
          32,
          33,
          34,
          35,
          36,
          37,
          38,
          39,
          40,
          41,
          42,
          43,
          44,
          45,
          46,
          47,
          48,
          49,
          50,
          51,
          52,
          53,
          54,
          55,
          56,
          57,
          58,
          59,
          60,
          61,
          62,
          63,
          64,
          65,
          66,
          67,
          68,
          69,
          70,
          71,
          72,
          73,
          74,
          75,
          76,
          77,
          78,
          79,
          80,
          81,
          82,
          83,
          84,
          85,
          86,
          87,
          88,
          89,
          90,
          91,
          92,
          93,
          94,
          95,
          96,
          97,
          98,
          99,
          100,
          101,
          102,
          103,
          104,
          105,
          106,
          107,
          108,
          109,
          110,
          111,
          112,
          113,
          114,
          115,
          116,
          117,
          118,
          119,
          120,
          121,
          122,
          123,
          124,
          125,
          126,
          127,
          128,
          129,
          130,
          131,
          132,
          133,
          134,
          135,
          136,
          137,
          138,
          139,
          140,
          141,
          142,
          143,
          144,
          145,
          146,
          147,
          148,
          149,
          150,
          151,
          152,
          153,
          154,
          155,
          156,
          157,
          158,
          159,
          160,
          161,
          162,
          163,
          164
        ],
        "WindowCenter": [
          1038.0,
          1040.0,
          1037.0,
          1035.0,
          1034.0,
          1034.0,
          1037.0,
          1036.0,
          1038.0,
          1037.0,
          1036.0,
          1037.0,
          1037.0,
          1038.0,
          1037.0,
          1035.0,
          1038.0,
          1037.0,
          1036.0,
          1034.0,
          1037.0,
          1038.0,
          1036.0,
          1034.0,
          1036.0,
          1037.0,
          1035.0,
          1036.0,
          1033.0,
          1034.0,
          1036.0,
          1036.0,
          1035.0,
          1035.0,
          1033.0,
          1035.0,
          1038.0,
          1035.0,
          1036.0,
          1036.0,
          1036.0,
          1037.0,
          1034.0,
          1036.0,
          1037.0,
          1036.0,
          1036.0,
          1035.0,
          1037.0,
          1037.0,
          1036.0,
          1036.0,
          1035.0,
          1035.0,
          1035.0,
          1037.0,
          1037.0,
          1036.0,
          1035.0,
          1035.0,
          1035.0,
          1036.0,
          1035.0,
          1035.0,
          1036.0,
          1037.0,
          1035.0,
          1035.0,
          1036.0,
          1036.0,
          1036.0,
          1035.0,
          1036.0,
          1036.0,
          1035.0,
          1035.0,
          1036.0,
          1037.0,
          1037.0,
          1035.0,
          1035.0,
          1038.0,
          1039.0,
          1039.0,
          1037.0,
          1036.0,
          1037.0,
          1037.0,
          1036.0,
          1036.0,
          1036.0,
          1036.0,
          1035.0,
          1036.0,
          1034.0,
          1035.0,
          1035.0,
          1037.0,
          1037.0,
          1036.0,
          1035.0,
          1036.0,
          1038.0,
          1037.0,
          1035.0,
          1037.0,
          1039.0,
          1038.0,
          1036.0,
          1036.0,
          1035.0,
          1036.0,
          1038.0,
          1036.0,
          1035.0,
          1036.0,
          1036.0,
          1036.0,
          1037.0,
          1037.0,
          1036.0,
          1035.0,
          1037.0,
          1038.0,
          1037.0,
          1037.0,
          1038.0,
          1038.0,
          1037.0,
          1035.0,
          1036.0,
          1038.0,
          1037.0,
          1037.0,
          1037.0,
          1038.0,
          1039.0,
          1039.0,
          1036.0,
          1035.0,
          1034.0,
          1035.0,
          1035.0,
          1036.0,
          1038.0,
          1036.0,
          1036.0,
          1038.0,
          1036.0,
          1036.0,
          1036.0,
          1036.0,
          1036.0,
          1035.0,
          1037.0,
          1037.0,
          1036.0,
          1037.0,
          1036.0,
          1035.0,
          1037.0,
          1037.0,
          1036.0,
          1037.0
        ],
        "WindowWidth": [
          2748.0,
          2750.0,
          2730.0,
          2732.0,
          2726.0,
          2733.0,
          2746.0,
          2739.0,
          2749.0,
          2741.0,
          2742.0,
          2746.0,
          2742.0,
          2748.0,
          2738.0,
          2734.0,
          2744.0,
          2743.0,
          2734.0,
          2731.0,
          2749.0,
          2738.0,
          2742.0,
          2731.0,
          2745.0,
          2739.0,
          2732.0,
          2734.0,
          2723.0,
          2732.0,
          2743.0,
          2738.0,
          2734.0,
          2732.0,
          2725.0,
          2737.0,
          2742.0,
          2733.0,
          2742.0,
          2737.0,
          2739.0,
          2738.0,
          2727.0,
          2740.0,
          2740.0,
          2740.0,
          2739.0,
          2737.0,
          2746.0,
          2745.0,
          2740.0,
          2735.0,
          2738.0,
          2734.0,
          2733.0,
          2738.0,
          2742.0,
          2738.0,
          2733.0,
          2734.0,
          2735.0,
          2741.0,
          2732.0,
          2733.0,
          2743.0,
          2739.0,
          2729.0,
          2736.0,
          2734.0,
          2736.0,
          2733.0,
          2729.0,
          2736.0,
          2732.0,
          2731.0,
          2733.0,
          2737.0,
          2743.0,
          2732.0,
          2729.0,
          2734.0,
          2745.0,
