{
  "aor": 0.0011035365853658535,
  "aqi": 0.0055273199390243905,
  "bids_meta": {
    "AcquisitionMatrixPE": 96,
    "AcquisitionNumber": 1,
    "AcquisitionTime": "16:52:32.782500",
    "BandwidthPerPixelPhaseEncode": 52.083,
    "BaseResolution": 96,
    "ConversionSoftware": "dcm2niix",
    "ConversionSoftwareVersion": "v1.0.20180622 GCC6.3.0",
    "DerivedVendorReportedEchoSpacing": 0.000600004,
    "DeviceSerialNumber": "18926",
    "DwellTime": 2.6e-06,
    "EchoTime": 0.025,
    "EffectiveEchoSpacing": 0.000200001,
    "FlipAngle": 50,
    "ImageOrientationPatientDICOM": [
      0.999992,
      0.00067012,
      0.00404905,
      2.11009e-10,
      0.98658,
      -0.16328
    ],
    "ImageType": [
      "ORIGINAL",
      "PRIMARY",
      "M",
      "ND",
      "ECHO",
      "00",
      "MOSAIC"
    ],
    "InPlanePhaseEncodingDirectionDICOM": "ROW",
    "InstitutionName": "NIMH",
    "InstitutionalDepartmentName": "Department",
    "MRAcquisitionType": "2D",
    "MagneticFieldStrength": 6.98,
    "Manufacturer": "Siemens",
    "ManufacturersModelName": "Investigational_Device_7T",
    "Modality": "MR",
    "ParallelReductionFactorInPlane": 3,
    "PartialFourier": 1,
    "PatientPosition": "HFS",
    "PercentPhaseFOV": 100,
    "PhaseEncodingDirection": "i",
    "PhaseEncodingSteps": 94,
    "PhaseResolution": 1,
    "PixelBandwidth": 2003,
    "ProcedureStepDescription": "UserProtocols_gonzalez",
    "ProtocolName": "NIH_EPI_2.0iso_TR2_Run03",
    "PulseSequenceDetails": "%CustomerSeq%_inati_nih_epi",
    "ReceiveCoilName": "32Ch_Head_7T",
    "ReconMatrixPE": 96,
    "RepetitionTime": 2,
    "SAR": 0.0888511,
    "ScanningSequence": "EP",
    "SequenceName": "epfid2d1_96",
    "SequenceVariant": "SK",
    "SeriesDescription": "NIH_EPI_2.0iso_TR2_Run03",
    "SeriesNumber": 7,
    "ShimSetting": [
      -65,
      250,
      1009,
      2159,
      -30,
      1067,
      303,
      -330
    ],
    "SliceThickness": 2,
    "SliceTiming": [
      1.005,
      0,
      1.0425,
      0.0375,
      1.08,
      0.075,
      1.115,
      0.1125,
      1.1525,
      0.15,
      1.19,
      0.1875,
      1.2275,
      0.2225,
      1.265,
      0.26,
      1.3025,
      0.2975,
      1.34,
      0.335,
      1.375,
      0.3725,
      1.4125,
      0.41,
      1.45,
      0.4475,
      1.4875,
      0.485,
      1.525,
      0.52,
      1.5625,
      0.5575,
      1.6,
      0.595,
      1.6375,
      0.6325,
      1.6725,
      0.67,
      1.71,
      0.7075,
      1.7475,
      0.745,
      1.785,
      0.7825,
      1.8225,
      0.8175,
      1.86,
      0.855,
      1.8975,
      0.8925,
      1.935,
      0.93,
      1.97,
      0.9675
    ],
    "SoftwareVersions": "syngo_MR_B17",
    "SpacingBetweenSlices": 2,
    "StationName": "FMRIFD7T",
    "TaskName": "FullFovAttentionTask",
    "TotalReadoutTime": 0.0190001,
    "TxRefAmp": 277,
    "dataset": "ds001555",
    "dcmmeta_affine": [
      [
        -1.9999831914901733,
        4.2201880878778297e-10,
        0.008208253420889378,
        95.76705169677734
      ],
      [
        -0.0013402394251897931,
        1.973159670829773,
        -0.32655632495880127,
        -60.41937255859375
      ],
      [
        0.008098097518086433,
        0.32655906677246094,
        1.9731431007385254,
        -53.714908599853516
      ],
      [
        0.0,
        0.0,
        0.0,
        1.0
      ]
    ],
    "dcmmeta_reorient_transform": [
      [
        0.0,
        -1.0,
        0.0,
        95.0
      ],
      [
        1.0,
        0.0,
        0.0,
        0.0
      ],
      [
        0.0,
        0.0,
        1.0,
        0.0
      ],
      [
        0.0,
        0.0,
        0.0,
        1.0
      ]
    ],
    "dcmmeta_shape": [
      96,
      96,
      54,
      164
    ],
    "dcmmeta_slice_dim": 2,
    "dcmmeta_version": 0.6,
    "global": {
      "const": {
        "AcquisitionMatrix": [
          0,
          96,
          96,
          0
        ],
        "AngioFlag": "N",
        "BitsAllocated": 16,
        "BitsStored": 12,
        "Columns": 768,
        "EchoNumbers": 1,
        "EchoTime": 25.0,
        "EchoTrainLength": 1,
        "FlipAngle": 50.0,
        "HighBit": 11,
        "ImageOrientationPatient": [
          0.99999157803662,
          0.00067011969073,
          0.00404904870684,
          2.110094e-10,
          0.98657984636313,
          -0.1632795356133
        ],
        "ImagePositionPatient": [
          -767.761392775,
          -790.46277663322,
          84.311089597242
        ],
        "ImageType": [
          "ORIGINAL",
          "PRIMARY",
          "M",
          "ND",
          "ECHO_00",
          "MOSAIC"
        ],
        "ImagedNucleus": "1H",
        "ImagingFrequency": 297.204954,
        "InPlanePhaseEncodingDirection": "ROW",
        "LargestImagePixelValue": 4095,
        "MRAcquisitionType": "2D",
        "MagneticFieldStrength": 6.98,
        "Manufacturer": "SIEMENS",
        "ManufacturerModelName": "Investigational_Device_7T",
        "Modality": "MR",
        "NumberOfAverages": 1.0,
        "NumberOfPhaseEncodingSteps": 94,
        "PercentPhaseFieldOfView": 100.0,
        "PercentSampling": 100.0,
        "PerformedProcedureStepStartTime": "162624.484000",
        "PhotometricInterpretation": "MONOCHROME2",
        "PixelBandwidth": 2003.0,
        "PixelRepresentation": 0,
        "PixelSpacing": [
          2.0,
          2.0
        ],
        "PositionReferenceIndicator": "",
        "ProtocolName": "NIH_EPI_2.0iso_TR2_Run03",
        "RepetitionTime": 2000.0,
        "Rows": 768,
        "SAR": 0.08885112147589,
        "SamplesPerPixel": 1,
        "ScanningSequence": "EP",
        "SequenceName": "epfid2d1_96",
        "SequenceVariant": "SK",
        "SeriesDescription": "NIH_EPI_2.0iso_TR2_Run03",
        "SeriesNumber": 7,
        "SliceLocation": -42.735396792406,
        "SliceThickness": 2.0,
        "SmallestImagePixelValue": 0,
        "SoftwareVersions": "syngo MR B17",
        "SpacingBetweenSlices": 2.0000000864935,
        "TransmitCoilName": "32Ch_Head_7T",
        "VariableFlipAngleFlag": "N",
        "WindowCenterWidthExplanation": "Algo1",
        "dBdt": 0.0
      },
      "slices": {}
    },
    "modality": "bold",
    "run_id": 4,
    "session_id": "02",
    "subject_id": "003",
    "task_id": "FullFovAttentionTask",
    "time": {
      "samples": {
        "AcquisitionNumber": [
          1,
          2,
          3,
          4,
          5,
          6,
          7,
          8,
          9,
          10,
          11,
          12,
          13,
          14,
          15,
          16,
          17,
          18,
          19,
          20,
          21,
          22,
          23,
          24,
          25,
          26,
          27,
          28,
          29,
          30,
          31,
          32,
          33,
          34,
          35,
          36,
          37,
          38,
          39,
          40,
          41,
          42,
          43,
          44,
          45,
          46,
          47,
          48,
          49,
          50,
          51,
          52,
          53,
          54,
          55,
          56,
          57,
          58,
          59,
          60,
          61,
          62,
          63,
          64,
          65,
          66,
          67,
          68,
          69,
          70,
          71,
          72,
          73,
          74,
          75,
          76,
          77,
          78,
          79,
          80,
          81,
          82,
          83,
          84,
          85,
          86,
          87,
          88,
          89,
          90,
          91,
          92,
          93,
          94,
          95,
          96,
          97,
          98,
          99,
          100,
          101,
          102,
          103,
          104,
          105,
          106,
          107,
          108,
          109,
          110,
          111,
          112,
          113,
          114,
          115,
          116,
          117,
          118,
          119,
          120,
          121,
          122,
          123,
          124,
          125,
          126,
          127,
          128,
          129,
          130,
          131,
          132,
          133,
          134,
          135,
          136,
          137,
          138,
          139,
          140,
          141,
          142,
          143,
          144,
          145,
          146,
          147,
          148,
          149,
          150,
          151,
          152,
          153,
          154,
          155,
          156,
          157,
          158,
          159,
          160,
          161,
          162,
          163,
          164
        ],
        "AcquisitionTime": [
          "165232.782500",
          "165236.797500",
          "165238.805000",
          "165240.815000",
          "165242.822500",
          "165244.830000",
          "165246.837500",
          "165248.845000",
          "165250.855000",
          "165252.862500",
          "165254.870000",
          "165256.877500",
          "165258.887500",
          "165300.895000",
          "165302.902500",
          "165304.910000",
          "165306.917500",
          "165308.927500",
          "165310.935000",
          "165312.942500",
          "165314.950000",
          "165316.957500",
          "165318.967500",
          "165320.975000",
          "165322.982500",
          "165324.990000",
          "165327.000000",
          "165329.007500",
          "165331.015000",
          "165333.022500",
          "165335.030000",
          "165337.040000",
          "165339.047500",
          "165341.055000",
          "165343.062500",
          "165345.070000",
          "165347.080000",
          "165349.087500",
          "165351.095000",
          "165353.102500",
          "165355.110000",
          "165357.120000",
          "165359.127500",
          "165401.135000",
          "165403.142500",
          "165405.152500",
          "165407.160000",
          "165409.167500",
          "165411.175000",
          "165413.182500",
          "165415.192500",
          "165417.200000",
          "165419.207500",
          "165421.215000",
          "165423.222500",
          "165425.232500",
          "165427.240000",
          "165429.247500",
          "165431.255000",
          "165433.265000",
          "165435.272500",
          "165437.280000",
          "165439.287500",
          "165441.295000",
          "165443.305000",
          "165445.312500",
          "165447.320000",
          "165449.327500",
          "165451.335000",
          "165453.345000",
          "165455.352500",
          "165457.360000",
          "165459.367500",
          "165501.377500",
          "165503.385000",
          "165505.392500",
          "165507.400000",
          "165509.407500",
          "165511.417500",
          "165513.425000",
          "165515.432500",
          "165517.440000",
          "165519.447500",
          "165521.457500",
          "165523.465000",
          "165525.472500",
          "165527.480000",
          "165529.490000",
          "165531.497500",
          "165533.505000",
          "165535.512500",
          "165537.520000",
          "165539.530000",
          "165541.537500",
          "165543.545000",
          "165545.552500",
          "165547.560000",
          "165549.570000",
          "165551.577500",
          "165553.585000",
          "165555.592500",
          "165557.600000",
          "165559.610000",
          "165601.617500",
          "165603.625000",
          "165605.632500",
          "165607.642500",
          "165609.650000",
          "165611.657500",
          "165613.665000",
          "165615.672500",
          "165617.682500",
          "165619.690000",
          "165621.697500",
          "165623.705000",
          "165625.712500",
          "165627.722500",
          "165629.730000",
          "165631.737500",
          "165633.745000",
          "165635.755000",
          "165637.762500",
          "165639.770000",
          "165641.777500",
          "165643.785000",
          "165645.795000",
          "165647.802500",
          "165649.810000",
          "165651.817500",
          "165653.825000",
          "165655.835000",
          "165657.842500",
          "165659.850000",
          "165701.857500",
          "165703.867500",
          "165705.875000",
          "165707.882500",
          "165709.890000",
          "165711.897500",
          "165713.907500",
          "165715.915000",
          "165717.922500",
          "165719.930000",
          "165721.937500",
          "165723.947500",
          "165725.955000",
          "165727.962500",
          "165729.970000",
          "165731.977500",
          "165733.987500",
          "165735.995000",
          "165738.002500",
          "165740.010000",
          "165742.020000",
          "165744.027500",
          "165746.035000",
          "165748.042500",
          "165750.050000",
          "165752.060000",
          "165754.067500",
          "165756.075000",
          "165758.082500",
          "165800.090000",
          "165802.100000"
        ],
        "ContentTime": [
          "165315.703000",
          "165315.703000",
          "165315.718000",
          "165315.718000",
          "165315.734000",
          "165315.734000",
          "165315.734000",
          "165315.734000",
          "165315.734000",
          "165315.734000",
          "165315.734000",
          "165315.750000",
          "165315.750000",
          "165315.750000",
          "165315.750000",
          "165315.750000",
          "165315.750000",
          "165315.765000",
          "165315.765000",
          "165315.765000",
          "165355.687000",
          "165355.687000",
          "165355.687000",
          "165355.687000",
          "165355.687000",
          "165355.687000",
          "165355.687000",
          "165355.703000",
          "165355.703000",
          "165355.703000",
          "165355.703000",
          "165355.703000",
          "165355.703000",
          "165355.718000",
          "165355.718000",
          "165355.718000",
          "165355.718000",
          "165355.718000",
          "165355.718000",
          "165355.718000",
          "165435.687000",
          "165435.687000",
          "165435.687000",
          "165435.687000",
          "165435.703000",
          "165435.703000",
          "165435.703000",
          "165435.703000",
          "165435.703000",
          "165435.703000",
          "165435.703000",
          "165435.718000",
          "165435.718000",
          "165435.718000",
          "165435.718000",
          "165435.718000",
          "165435.734000",
          "165435.734000",
          "165435.734000",
          "165435.734000",
          "165515.687000",
          "165515.687000",
          "165515.687000",
          "165515.687000",
          "165515.703000",
          "165515.703000",
          "165515.703000",
          "165515.703000",
          "165515.703000",
          "165515.703000",
          "165515.718000",
          "165515.718000",
          "165515.718000",
          "165515.718000",
          "165515.718000",
          "165515.718000",
          "165515.718000",
          "165515.734000",
          "165515.734000",
          "165515.734000",
          "165555.687000",
          "165555.687000",
          "165555.687000",
          "165555.687000",
          "165555.687000",
          "165555.687000",
          "165555.703000",
          "165555.703000",
          "165555.703000",
          "165555.703000",
          "165555.703000",
          "165555.703000",
          "165555.718000",
          "165555.718000",
          "165555.718000",
          "165555.718000",
          "165555.718000",
          "165555.718000",
          "165555.718000",
          "165555.734000",
          "165635.687000",
          "165635.687000",
          "165635.687000",
          "165635.687000",
          "165635.687000",
          "165635.687000",
          "165635.703000",
          "165635.703000",
          "165635.703000",
          "165635.703000",
          "165635.703000",
          "165635.718000",
          "165635.718000",
          "165635.718000",
          "165635.718000",
          "165635.718000",
          "165635.734000",
          "165635.734000",
          "165635.734000",
          "165635.734000",
          "165715.687000",
          "165715.687000",
          "165715.687000",
          "165715.687000",
          "165715.687000",
          "165715.703000",
          "165715.703000",
          "165715.703000",
          "165715.703000",
          "165715.703000",
          "165715.718000",
          "165715.718000",
          "165715.718000",
          "165715.718000",
          "165715.718000",
          "165715.718000",
          "165715.734000",
          "165715.734000",
          "165715.734000",
          "165715.734000",
          "165755.687000",
          "165755.687000",
          "165755.687000",
          "165755.703000",
          "165755.703000",
          "165755.703000",
          "165755.703000",
          "165755.703000",
          "165755.718000",
          "165755.718000",
          "165755.718000",
          "165755.718000",
          "165755.718000",
          "165755.718000",
          "165755.718000",
          "165755.734000",
          "165755.734000",
          "165755.734000",
          "165755.734000",
          "165755.734000",
          "165802.515000",
          "165802.515000",
          "165802.515000",
          "165802.515000"
        ],
        "InstanceCreationTime": [
          "165315.703000",
          "165315.703000",
          "165315.718000",
          "165315.718000",
          "165315.734000",
          "165315.734000",
          "165315.734000",
          "165315.734000",
          "165315.734000",
          "165315.734000",
          "165315.734000",
          "165315.750000",
          "165315.750000",
          "165315.750000",
          "165315.750000",
          "165315.750000",
          "165315.750000",
          "165315.765000",
          "165315.765000",
          "165315.765000",
          "165355.687000",
          "165355.687000",
          "165355.687000",
          "165355.687000",
          "165355.687000",
          "165355.687000",
          "165355.687000",
          "165355.703000",
          "165355.703000",
          "165355.703000",
          "165355.703000",
          "165355.703000",
          "165355.703000",
          "165355.718000",
          "165355.718000",
          "165355.718000",
          "165355.718000",
          "165355.718000",
          "165355.718000",
          "165355.718000",
          "165435.687000",
          "165435.687000",
          "165435.687000",
          "165435.687000",
          "165435.703000",
          "165435.703000",
          "165435.703000",
          "165435.703000",
          "165435.703000",
          "165435.703000",
          "165435.703000",
          "165435.718000",
          "165435.718000",
          "165435.718000",
          "165435.718000",
          "165435.718000",
          "165435.734000",
          "165435.734000",
          "165435.734000",
          "165435.734000",
          "165515.687000",
          "165515.687000",
          "165515.687000",
          "165515.687000",
          "165515.703000",
          "165515.703000",
          "165515.703000",
          "165515.703000",
          "165515.703000",
          "165515.703000",
          "165515.718000",
          "165515.718000",
          "165515.718000",
          "165515.718000",
          "165515.718000",
          "165515.718000",
          "165515.718000",
          "165515.734000",
          "165515.734000",
          "165515.734000",
          "165555.687000",
          "165555.687000",
          "165555.687000",
          "165555.687000",
          "165555.687000",
          "165555.687000",
          "165555.703000",
          "165555.703000",
          "165555.703000",
          "165555.703000",
          "165555.703000",
          "165555.703000",
          "165555.718000",
          "165555.718000",
          "165555.718000",
          "165555.718000",
          "165555.718000",
          "165555.718000",
          "165555.718000",
          "165555.734000",
          "165635.687000",
          "165635.687000",
          "165635.687000",
          "165635.687000",
          "165635.687000",
          "165635.687000",
          "165635.703000",
          "165635.703000",
          "165635.703000",
          "165635.703000",
          "165635.703000",
          "165635.718000",
          "165635.718000",
          "165635.718000",
          "165635.718000",
          "165635.718000",
          "165635.734000",
          "165635.734000",
          "165635.734000",
          "165635.734000",
          "165715.687000",
          "165715.687000",
          "165715.687000",
          "165715.687000",
          "165715.687000",
          "165715.703000",
          "165715.703000",
          "165715.703000",
          "165715.703000",
          "165715.703000",
          "165715.718000",
          "165715.718000",
          "165715.718000",
          "165715.718000",
          "165715.718000",
          "165715.718000",
          "165715.734000",
          "165715.734000",
          "165715.734000",
          "165715.734000",
          "165755.687000",
          "165755.687000",
          "165755.687000",
          "165755.703000",
          "165755.703000",
          "165755.703000",
          "165755.703000",
          "165755.703000",
          "165755.718000",
          "165755.718000",
          "165755.718000",
          "165755.718000",
          "165755.718000",
          "165755.718000",
          "165755.718000",
          "165755.734000",
          "165755.734000",
          "165755.734000",
          "165755.734000",
          "165755.734000",
          "165802.515000",
          "165802.515000",
          "165802.515000",
          "165802.515000"
        ],
        "InstanceNumber": [
          1,
          2,
          3,
          4,
          5,
          6,
          7,
          8,
          9,
          10,
          11,
          12,
          13,
          14,
          15,
          16,
          17,
          18,
          19,
          20,
          21,
          22,
          23,
          24,
          25,
          26,
          27,
          28,
          29,
          30,
          31,
          32,
          33,
          34,
          35,
          36,
          37,
          38,
          39,
          40,
          41,
          42,
          43,
          44,
          45,
          46,
          47,
          48,
          49,
          50,
          51,
          52,
          53,
          54,
          55,
          56,
          57,
          58,
          59,
          60,
          61,
          62,
          63,
          64,
          65,
          66,
          67,
          68,
          69,
          70,
          71,
          72,
          73,
          74,
          75,
          76,
          77,
          78,
          79,
          80,
          81,
          82,
          83,
          84,
          85,
          86,
          87,
          88,
          89,
          90,
          91,
          92,
          93,
          94,
          95,
          96,
          97,
          98,
          99,
          100,
          101,
          102,
          103,
          104,
          105,
          106,
          107,
          108,
          109,
          110,
          111,
          112,
          113,
          114,
          115,
          116,
          117,
          118,
          119,
          120,
          121,
          122,
          123,
          124,
          125,
          126,
          127,
          128,
          129,
          130,
          131,
          132,
          133,
          134,
          135,
          136,
          137,
          138,
          139,
          140,
          141,
          142,
          143,
          144,
          145,
          146,
          147,
          148,
          149,
          150,
          151,
          152,
          153,
          154,
          155,
          156,
          157,
          158,
          159,
          160,
          161,
          162,
          163,
          164
        ],
        "WindowCenter": [
          950.0,
          949.0,
          949.0,
          949.0,
          949.0,
          948.0,
          949.0,
          949.0,
          949.0,
          949.0,
          949.0,
          949.0,
          949.0,
          949.0,
          949.0,
          949.0,
          950.0,
          951.0,
          949.0,
          949.0,
          949.0,
          949.0,
          948.0,
          949.0,
          949.0,
          948.0,
          948.0,
          949.0,
          949.0,
          949.0,
          949.0,
          950.0,
          949.0,
          949.0,
          949.0,
          949.0,
          949.0,
          949.0,
          949.0,
          949.0,
          950.0,
          949.0,
          949.0,
          949.0,
          949.0,
          949.0,
          949.0,
          949.0,
          949.0,
          949.0,
          949.0,
          949.0,
          948.0,
          949.0,
          950.0,
          950.0,
          948.0,
          947.0,
          948.0,
          949.0,
          949.0,
          949.0,
          948.0,
          949.0,
          949.0,
          949.0,
          948.0,
          949.0,
          951.0,
          950.0,
          949.0,
          950.0,
          951.0,
          951.0,
          952.0,
          951.0,
          950.0,
          950.0,
          950.0,
          950.0,
          948.0,
          949.0,
          949.0,
          950.0,
          950.0,
          949.0,
          949.0,
          949.0,
          950.0,
          950.0,
          950.0,
          950.0,
          949.0,
          949.0,
          949.0,
          950.0,
          949.0,
          949.0,
          949.0,
          949.0,
          948.0,
          950.0,
          949.0,
          949.0,
          949.0,
          949.0,
          950.0,
          949.0,
          949.0,
          949.0,
          949.0,
          949.0,
          949.0,
          949.0,
          948.0,
          947.0,
          948.0,
          947.0,
          947.0,
          948.0,
          947.0,
          948.0,
          948.0,
          948.0,
          947.0,
          948.0,
          947.0,
          948.0,
          948.0,
          948.0,
          948.0,
          948.0,
          950.0,
          950.0,
          949.0,
          948.0,
          948.0,
          948.0,
          948.0,
          949.0,
          948.0,
          948.0,
          948.0,
          948.0,
          949.0,
          948.0,
          947.0,
          948.0,
          948.0,
          948.0,
          948.0,
          947.0,
          947.0,
          947.0,
          948.0,
          949.0,
          949.0,
          949.0,
          948.0,
          948.0,
          948.0,
          948.0,
          949.0,
          949.0
        ],
        "WindowWidth": [
          2514.0,
          2509.0,
          2509.0,
          2512.0,
          2510.0,
          2507.0,
          2509.0,
          2514.0,
          2513.0,
          2507.0,
          2506.0,
          2512.0,
          2516.0,
          2514.0,
          2514.0,
          2518.0,
          2525.0,
          2522.0,
          2512.0,
          2507.0,
          2509.0,
          2510.0,
          2511.0,
          2510.0,
          2507.0,
          2505.0,
          2507.0,
          2511.0,
          2514.0,
          2512.0,
          2516.0,
          2517.0,
          2513.0,
          2511.0,
          2512.0,
          2513.0,
          2512.0,
          2511.0,
          2512.0,
          2516.0,
          2518.0,
          2517.0,
          2515.0,
          2512.0,
          2510.0,
          2508.0,
          2512.0,
          2515.0,
          2510.0,
          2508.0,
          2511.0,
          2507.0,
          2506.0,
          2516.0,
          2520.0,
          2509.0,
          2498.0,
          2500.0,
          2506.0,
          2511.0,
          2510.0,
          2504.0,
          2506.0,
          2514.0,
          2510.0,
          2502.0,
          2506.0,
          2516.0,
          2517.0,
          2514.0,
          2513.0,
          2519.0,
          2520.0,
          2521.0,
          2524.0,
          2522.0,
          2519.0,
          2518.0,
          2513.0,
          2507.0,
          2506.0,
          2508.0,
          2512.0,
          2511.0,
          2509.0,
          2509.0,
          2511.0,
          2513.0,
          2515.0,
          2518.0,
          2517.0,
          2511.0,
          2508.0,
          2507.0,
          2509.0,
          2508.0,
          2510.0,
          2513.0,
          2515.0,
          2510.0,
          2510.0,
          2511.0,
          2513.0,
          2515.0,
          2516.0,
          2517.0,
          2511.0,
          2506.0,
          2503.0,
          2503.0,
          2506.0,
          2506.0,
          2507.0,
          2503.0,
          2502.0,
          2502.0,
          2502.0,
          2501.0,
          2501.0,
          2502.0,
          2501.0,
          2504.0,
          2503.0,
          2502.0,
          2503.0,
          2504.0,
          2505.0,
          2508.0,
          2508.0,
          2505.0,
          2504.0,
          2510.0,
          2518.0,
          2518.0,
          2510.0,
          2505.0,
          2510.0,
          2509.0,
          2504.0,
          2504.0,
          2504.0,
