{
  "aor": 0.001427560975609756,
  "aqi": 0.005347768231707317,
  "bids_meta": {
    "AcquisitionMatrixPE": 96,
    "AcquisitionNumber": 1,
    "AcquisitionTime": "16:40:2.317500",
    "BandwidthPerPixelPhaseEncode": 52.083,
    "BaseResolution": 96,
    "ConversionSoftware": "dcm2niix",
    "ConversionSoftwareVersion": "v1.0.20180622 GCC6.3.0",
    "DerivedVendorReportedEchoSpacing": 0.000600004,
    "DeviceSerialNumber": "18926",
    "DwellTime": 2.6e-06,
    "EchoTime": 0.025,
    "EffectiveEchoSpacing": 0.000200001,
    "FlipAngle": 50,
    "ImageOrientationPatientDICOM": [
      0.999992,
      0.00067012,
      0.00404905,
      2.11009e-10,
      0.98658,
      -0.16328
    ],
    "ImageType": [
      "ORIGINAL",
      "PRIMARY",
      "M",
      "ND",
      "ECHO",
      "00",
      "MOSAIC"
    ],
    "InPlanePhaseEncodingDirectionDICOM": "ROW",
    "InstitutionName": "NIMH",
    "InstitutionalDepartmentName": "Department",
    "MRAcquisitionType": "2D",
    "MagneticFieldStrength": 6.98,
    "Manufacturer": "Siemens",
    "ManufacturersModelName": "Investigational_Device_7T",
    "Modality": "MR",
    "ParallelReductionFactorInPlane": 3,
    "PartialFourier": 1,
    "PatientPosition": "HFS",
    "PercentPhaseFOV": 100,
    "PhaseEncodingDirection": "i",
    "PhaseEncodingSteps": 94,
    "PhaseResolution": 1,
    "PixelBandwidth": 2003,
    "ProcedureStepDescription": "UserProtocols_gonzalez",
    "ProtocolName": "NIH_EPI_2.0iso_TR2_Run01",
    "PulseSequenceDetails": "%CustomerSeq%_inati_nih_epi",
    "ReceiveCoilName": "32Ch_Head_7T",
    "ReconMatrixPE": 96,
    "RepetitionTime": 2,
    "SAR": 0.0888511,
    "ScanningSequence": "EP",
    "SequenceName": "epfid2d1_96",
    "SequenceVariant": "SK",
    "SeriesDescription": "NIH_EPI_2.0iso_TR2_Run01",
    "SeriesNumber": 5,
    "ShimSetting": [
      -65,
      250,
      1009,
      2159,
      -30,
      1067,
      303,
      -330
    ],
    "SliceThickness": 2,
    "SliceTiming": [
      1.005,
      0,
      1.0425,
      0.0375,
      1.08,
      0.075,
      1.115,
      0.1125,
      1.1525,
      0.15,
      1.19,
      0.1875,
      1.2275,
      0.2225,
      1.265,
      0.26,
      1.3025,
      0.2975,
      1.34,
      0.335,
      1.3775,
      0.3725,
      1.4125,
      0.41,
      1.45,
      0.4475,
      1.4875,
      0.485,
      1.525,
      0.52,
      1.5625,
      0.5575,
      1.6,
      0.595,
      1.6375,
      0.6325,
      1.6725,
      0.67,
      1.71,
      0.7075,
      1.7475,
      0.745,
      1.785,
      0.7825,
      1.8225,
      0.8175,
      1.86,
      0.855,
      1.8975,
      0.8925,
      1.935,
      0.93,
      1.97,
      0.9675
    ],
    "SoftwareVersions": "syngo_MR_B17",
    "SpacingBetweenSlices": 2,
    "StationName": "FMRIFD7T",
    "TaskName": "FullFovAttentionTask",
    "TotalReadoutTime": 0.0190001,
    "TxRefAmp": 277,
    "dataset": "ds001555",
    "dcmmeta_affine": [
      [
        -1.9999831914901733,
        4.2201880878778297e-10,
        0.008208253420889378,
        95.76705169677734
      ],
      [
        -0.0013402394251897931,
        1.973159670829773,
        -0.32655632495880127,
        -60.41937255859375
      ],
      [
        0.008098097518086433,
        0.32655906677246094,
        1.9731431007385254,
        -53.714908599853516
      ],
      [
        0.0,
        0.0,
        0.0,
        1.0
      ]
    ],
    "dcmmeta_reorient_transform": [
      [
        0.0,
        -1.0,
        0.0,
        95.0
      ],
      [
        1.0,
        0.0,
        0.0,
        0.0
      ],
      [
        0.0,
        0.0,
        1.0,
        0.0
      ],
      [
        0.0,
        0.0,
        0.0,
        1.0
      ]
    ],
    "dcmmeta_shape": [
      96,
      96,
      54,
      164
    ],
    "dcmmeta_slice_dim": 2,
    "dcmmeta_version": 0.6,
    "global": {
      "const": {
        "AcquisitionMatrix": [
          0,
          96,
          96,
          0
        ],
        "AngioFlag": "N",
        "BitsAllocated": 16,
        "BitsStored": 12,
        "Columns": 768,
        "EchoNumbers": 1,
        "EchoTime": 25.0,
        "EchoTrainLength": 1,
        "FlipAngle": 50.0,
        "HighBit": 11,
        "ImageOrientationPatient": [
          0.99999157803662,
          0.00067011969073,
          0.00404904870684,
          2.110094e-10,
          0.98657984636313,
          -0.1632795356133
        ],
        "ImagePositionPatient": [
          -767.761392775,
          -790.46277663322,
          84.311089597242
        ],
        "ImageType": [
          "ORIGINAL",
          "PRIMARY",
          "M",
          "ND",
          "ECHO_00",
          "MOSAIC"
        ],
        "ImagedNucleus": "1H",
        "ImagingFrequency": 297.204916,
        "InPlanePhaseEncodingDirection": "ROW",
        "LargestImagePixelValue": 4095,
        "MRAcquisitionType": "2D",
        "MagneticFieldStrength": 6.98,
        "Manufacturer": "SIEMENS",
        "ManufacturerModelName": "Investigational_Device_7T",
        "Modality": "MR",
        "NumberOfAverages": 1.0,
        "NumberOfPhaseEncodingSteps": 94,
        "PercentPhaseFieldOfView": 100.0,
        "PercentSampling": 100.0,
        "PerformedProcedureStepStartTime": "162624.484000",
        "PhotometricInterpretation": "MONOCHROME2",
        "PixelBandwidth": 2003.0,
        "PixelRepresentation": 0,
        "PixelSpacing": [
          2.0,
          2.0
        ],
        "PositionReferenceIndicator": "",
        "ProtocolName": "NIH_EPI_2.0iso_TR2_Run01",
        "RepetitionTime": 2000.0,
        "Rows": 768,
        "SAR": 0.08885112147589,
        "SamplesPerPixel": 1,
        "ScanningSequence": "EP",
        "SequenceName": "epfid2d1_96",
        "SequenceVariant": "SK",
        "SeriesDescription": "NIH_EPI_2.0iso_TR2_Run01",
        "SeriesNumber": 5,
        "SliceLocation": -42.735396792406,
        "SliceThickness": 2.0,
        "SmallestImagePixelValue": 0,
        "SoftwareVersions": "syngo MR B17",
        "SpacingBetweenSlices": 2.0000000864935,
        "TransmitCoilName": "32Ch_Head_7T",
        "VariableFlipAngleFlag": "N",
        "WindowCenterWidthExplanation": "Algo1",
        "dBdt": 0.0
      },
      "slices": {}
    },
    "modality": "bold",
    "run_id": 2,
    "session_id": "02",
    "subject_id": "003",
    "task_id": "FullFovAttentionTask",
    "time": {
      "samples": {
        "AcquisitionNumber": [
          1,
          2,
          3,
          4,
          5,
          6,
          7,
          8,
          9,
          10,
          11,
          12,
          13,
          14,
          15,
          16,
          17,
          18,
          19,
          20,
          21,
          22,
          23,
          24,
          25,
          26,
          27,
          28,
          29,
          30,
          31,
          32,
          33,
          34,
          35,
          36,
          37,
          38,
          39,
          40,
          41,
          42,
          43,
          44,
          45,
          46,
          47,
          48,
          49,
          50,
          51,
          52,
          53,
          54,
          55,
          56,
          57,
          58,
          59,
          60,
          61,
          62,
          63,
          64,
          65,
          66,
          67,
          68,
          69,
          70,
          71,
          72,
          73,
          74,
          75,
          76,
          77,
          78,
          79,
          80,
          81,
          82,
          83,
          84,
          85,
          86,
          87,
          88,
          89,
          90,
          91,
          92,
          93,
          94,
          95,
          96,
          97,
          98,
          99,
          100,
          101,
          102,
          103,
          104,
          105,
          106,
          107,
          108,
          109,
          110,
          111,
          112,
          113,
          114,
          115,
          116,
          117,
          118,
          119,
          120,
          121,
          122,
          123,
          124,
          125,
          126,
          127,
          128,
          129,
          130,
          131,
          132,
          133,
          134,
          135,
          136,
          137,
          138,
          139,
          140,
          141,
          142,
          143,
          144,
          145,
          146,
          147,
          148,
          149,
          150,
          151,
          152,
          153,
          154,
          155,
          156,
          157,
          158,
          159,
          160,
          161,
          162,
          163,
          164
        ],
        "AcquisitionTime": [
          "164002.317500",
          "164006.332500",
          "164008.340000",
          "164010.350000",
          "164012.357500",
          "164014.365000",
          "164016.372500",
          "164018.380000",
          "164020.390000",
          "164022.397500",
          "164024.405000",
          "164026.412500",
          "164028.422500",
          "164030.430000",
          "164032.437500",
          "164034.445000",
          "164036.452500",
          "164038.462500",
          "164040.470000",
          "164042.477500",
          "164044.485000",
          "164046.492500",
          "164048.502500",
          "164050.510000",
          "164052.517500",
          "164054.525000",
          "164056.535000",
          "164058.542500",
          "164100.550000",
          "164102.557500",
          "164104.565000",
          "164106.575000",
          "164108.582500",
          "164110.590000",
          "164112.597500",
          "164114.605000",
          "164116.615000",
          "164118.622500",
          "164120.630000",
          "164122.637500",
          "164124.647500",
          "164126.655000",
          "164128.662500",
          "164130.670000",
          "164132.677500",
          "164134.687500",
          "164136.695000",
          "164138.702500",
          "164140.710000",
          "164142.717500",
          "164144.727500",
          "164146.735000",
          "164148.742500",
          "164150.750000",
          "164152.757500",
          "164154.767500",
          "164156.775000",
          "164158.782500",
          "164200.790000",
          "164202.800000",
          "164204.807500",
          "164206.815000",
          "164208.822500",
          "164210.830000",
          "164212.840000",
          "164214.847500",
          "164216.855000",
          "164218.862500",
          "164220.870000",
          "164222.880000",
          "164224.887500",
          "164226.895000",
          "164228.902500",
          "164230.912500",
          "164232.920000",
          "164234.927500",
          "164236.935000",
          "164238.942500",
          "164240.952500",
          "164242.960000",
          "164244.967500",
          "164246.975000",
          "164248.982500",
          "164250.992500",
          "164253.000000",
          "164255.007500",
          "164257.015000",
          "164259.025000",
          "164301.032500",
          "164303.040000",
          "164305.047500",
          "164307.055000",
          "164309.065000",
          "164311.072500",
          "164313.080000",
          "164315.087500",
          "164317.095000",
          "164319.105000",
          "164321.112500",
          "164323.120000",
          "164325.127500",
          "164327.135000",
          "164329.145000",
          "164331.152500",
          "164333.160000",
          "164335.167500",
          "164337.177500",
          "164339.185000",
          "164341.192500",
          "164343.200000",
          "164345.207500",
          "164347.217500",
          "164349.225000",
          "164351.232500",
          "164353.240000",
          "164355.247500",
          "164357.257500",
          "164359.265000",
          "164401.272500",
          "164403.280000",
          "164405.290000",
          "164407.297500",
          "164409.305000",
          "164411.312500",
          "164413.320000",
          "164415.330000",
          "164417.337500",
          "164419.345000",
          "164421.352500",
          "164423.360000",
          "164425.370000",
          "164427.377500",
          "164429.385000",
          "164431.392500",
          "164433.402500",
          "164435.410000",
          "164437.417500",
          "164439.425000",
          "164441.432500",
          "164443.442500",
          "164445.450000",
          "164447.457500",
          "164449.465000",
          "164451.472500",
          "164453.482500",
          "164455.490000",
          "164457.497500",
          "164459.505000",
          "164501.515000",
          "164503.522500",
          "164505.530000",
          "164507.537500",
          "164509.545000",
          "164511.555000",
          "164513.562500",
          "164515.570000",
          "164517.577500",
          "164519.585000",
          "164521.595000",
          "164523.602500",
          "164525.610000",
          "164527.617500",
          "164529.625000",
          "164531.635000"
        ],
        "ContentTime": [
          "164103.468000",
          "164103.468000",
          "164103.484000",
          "164103.484000",
          "164103.484000",
          "164103.484000",
          "164103.484000",
          "164103.484000",
          "164103.484000",
          "164103.500000",
          "164103.500000",
          "164103.500000",
          "164103.515000",
          "164103.515000",
          "164103.515000",
          "164103.515000",
          "164103.515000",
          "164103.515000",
          "164103.515000",
          "164103.531000",
          "164103.531000",
          "164103.531000",
          "164103.531000",
          "164103.531000",
          "164103.531000",
          "164103.531000",
          "164103.546000",
          "164103.546000",
          "164103.546000",
          "164143.468000",
          "164143.468000",
          "164143.468000",
          "164143.468000",
          "164143.468000",
          "164143.468000",
          "164143.468000",
          "164143.484000",
          "164143.484000",
          "164143.484000",
          "164143.484000",
          "164143.500000",
          "164143.500000",
          "164143.500000",
          "164143.500000",
          "164143.500000",
          "164143.500000",
          "164143.500000",
          "164143.515000",
          "164143.515000",
          "164223.468000",
          "164223.468000",
          "164223.468000",
          "164223.468000",
          "164223.468000",
          "164223.468000",
          "164223.484000",
          "164223.484000",
          "164223.484000",
          "164223.484000",
          "164223.500000",
          "164223.500000",
          "164223.500000",
          "164223.500000",
          "164223.500000",
          "164223.500000",
          "164223.500000",
          "164223.515000",
          "164223.515000",
          "164223.515000",
          "164303.468000",
          "164303.468000",
          "164303.468000",
          "164303.468000",
          "164303.468000",
          "164303.468000",
          "164303.468000",
          "164303.484000",
          "164303.484000",
          "164303.484000",
          "164303.484000",
          "164303.484000",
          "164303.484000",
          "164303.500000",
          "164303.500000",
          "164303.500000",
          "164303.500000",
          "164303.500000",
          "164303.500000",
          "164303.500000",
          "164343.468000",
          "164343.468000",
          "164343.468000",
          "164343.468000",
          "164343.468000",
          "164343.468000",
          "164343.468000",
          "164343.484000",
          "164343.484000",
          "164343.484000",
          "164343.484000",
          "164343.484000",
          "164343.484000",
          "164343.500000",
          "164343.500000",
          "164343.500000",
          "164343.500000",
          "164343.500000",
          "164343.500000",
          "164343.500000",
          "164423.468000",
          "164423.468000",
          "164423.468000",
          "164423.468000",
          "164423.468000",
          "164423.468000",
          "164423.468000",
          "164423.484000",
          "164423.484000",
          "164423.484000",
          "164423.484000",
          "164423.500000",
          "164423.500000",
          "164423.500000",
          "164423.500000",
          "164423.500000",
          "164423.500000",
          "164423.515000",
          "164423.515000",
          "164423.515000",
          "164503.468000",
          "164503.468000",
          "164503.468000",
          "164503.468000",
          "164503.468000",
          "164503.468000",
          "164503.484000",
          "164503.484000",
          "164503.484000",
          "164503.500000",
          "164503.500000",
          "164503.500000",
          "164503.500000",
          "164503.500000",
          "164503.500000",
          "164503.515000",
          "164503.515000",
          "164503.515000",
          "164503.515000",
          "164503.515000",
          "164532.718000",
          "164532.718000",
          "164532.718000",
          "164532.718000",
          "164532.718000",
          "164532.734000",
          "164532.734000",
          "164532.750000",
          "164532.750000",
          "164532.750000",
          "164532.750000",
          "164532.750000",
          "164532.750000",
          "164532.765000",
          "164532.765000"
        ],
        "InstanceCreationTime": [
          "164103.468000",
          "164103.468000",
          "164103.484000",
          "164103.484000",
          "164103.484000",
          "164103.484000",
          "164103.484000",
          "164103.484000",
          "164103.484000",
          "164103.500000",
          "164103.500000",
          "164103.500000",
          "164103.515000",
          "164103.515000",
          "164103.515000",
          "164103.515000",
          "164103.515000",
          "164103.515000",
          "164103.515000",
          "164103.531000",
          "164103.531000",
          "164103.531000",
          "164103.531000",
          "164103.531000",
          "164103.531000",
          "164103.531000",
          "164103.546000",
          "164103.546000",
          "164103.546000",
          "164143.468000",
          "164143.468000",
          "164143.468000",
          "164143.468000",
          "164143.468000",
          "164143.468000",
          "164143.468000",
          "164143.484000",
          "164143.484000",
          "164143.484000",
          "164143.484000",
          "164143.500000",
          "164143.500000",
          "164143.500000",
          "164143.500000",
          "164143.500000",
          "164143.500000",
          "164143.500000",
          "164143.515000",
          "164143.515000",
          "164223.468000",
          "164223.468000",
          "164223.468000",
          "164223.468000",
          "164223.468000",
          "164223.468000",
          "164223.484000",
          "164223.484000",
          "164223.484000",
          "164223.484000",
          "164223.500000",
          "164223.500000",
          "164223.500000",
          "164223.500000",
          "164223.500000",
          "164223.500000",
          "164223.500000",
          "164223.515000",
          "164223.515000",
          "164223.515000",
          "164303.468000",
          "164303.468000",
          "164303.468000",
          "164303.468000",
          "164303.468000",
          "164303.468000",
          "164303.468000",
          "164303.484000",
          "164303.484000",
          "164303.484000",
          "164303.484000",
          "164303.484000",
          "164303.484000",
          "164303.500000",
          "164303.500000",
          "164303.500000",
          "164303.500000",
          "164303.500000",
          "164303.500000",
          "164303.500000",
          "164343.468000",
          "164343.468000",
          "164343.468000",
          "164343.468000",
          "164343.468000",
          "164343.468000",
          "164343.468000",
          "164343.484000",
          "164343.484000",
          "164343.484000",
          "164343.484000",
          "164343.484000",
          "164343.484000",
          "164343.500000",
          "164343.500000",
          "164343.500000",
          "164343.500000",
          "164343.500000",
          "164343.500000",
          "164343.500000",
          "164423.468000",
          "164423.468000",
          "164423.468000",
          "164423.468000",
          "164423.468000",
          "164423.468000",
          "164423.468000",
          "164423.484000",
          "164423.484000",
          "164423.484000",
          "164423.484000",
          "164423.500000",
          "164423.500000",
          "164423.500000",
          "164423.500000",
          "164423.500000",
          "164423.500000",
          "164423.515000",
          "164423.515000",
          "164423.515000",
          "164503.468000",
          "164503.468000",
          "164503.468000",
          "164503.468000",
          "164503.468000",
          "164503.468000",
          "164503.484000",
          "164503.484000",
          "164503.484000",
          "164503.500000",
          "164503.500000",
          "164503.500000",
          "164503.500000",
          "164503.500000",
          "164503.500000",
          "164503.515000",
          "164503.515000",
          "164503.515000",
          "164503.515000",
          "164503.515000",
          "164532.718000",
          "164532.718000",
          "164532.718000",
          "164532.718000",
          "164532.718000",
          "164532.734000",
          "164532.734000",
          "164532.750000",
          "164532.750000",
          "164532.750000",
          "164532.750000",
          "164532.750000",
          "164532.750000",
          "164532.765000",
          "164532.765000"
        ],
        "InstanceNumber": [
          1,
          2,
          3,
          4,
          5,
          6,
          7,
          8,
          9,
          10,
          11,
          12,
          13,
          14,
          15,
          16,
          17,
          18,
          19,
          20,
          21,
          22,
          23,
          24,
          25,
          26,
          27,
          28,
          29,
          30,
          31,
          32,
          33,
          34,
          35,
          36,
          37,
          38,
          39,
          40,
          41,
          42,
          43,
          44,
          45,
          46,
          47,
          48,
          49,
          50,
          51,
          52,
          53,
          54,
          55,
          56,
          57,
          58,
          59,
          60,
          61,
          62,
          63,
          64,
          65,
          66,
          67,
          68,
          69,
          70,
          71,
          72,
          73,
          74,
          75,
          76,
          77,
          78,
          79,
          80,
          81,
          82,
          83,
          84,
          85,
          86,
          87,
          88,
          89,
          90,
          91,
          92,
          93,
          94,
          95,
          96,
          97,
          98,
          99,
          100,
          101,
          102,
          103,
          104,
          105,
          106,
          107,
          108,
          109,
          110,
          111,
          112,
          113,
          114,
          115,
          116,
          117,
          118,
          119,
          120,
          121,
          122,
          123,
          124,
          125,
          126,
          127,
          128,
          129,
          130,
          131,
          132,
          133,
          134,
          135,
          136,
          137,
          138,
          139,
          140,
          141,
          142,
          143,
          144,
          145,
          146,
          147,
          148,
          149,
          150,
          151,
          152,
          153,
          154,
          155,
          156,
          157,
          158,
          159,
          160,
          161,
          162,
          163,
          164
        ],
        "WindowCenter": [
          951.0,
          950.0,
          951.0,
          952.0,
          952.0,
          952.0,
          952.0,
          952.0,
          952.0,
          952.0,
          953.0,
          953.0,
          954.0,
          953.0,
          951.0,
          952.0,
          953.0,
          954.0,
          953.0,
          951.0,
          953.0,
          952.0,
          952.0,
          952.0,
          952.0,
          952.0,
          953.0,
          952.0,
          952.0,
          951.0,
          952.0,
          953.0,
          955.0,
          953.0,
          952.0,
          954.0,
          954.0,
          953.0,
          952.0,
          954.0,
          954.0,
          953.0,
          953.0,
          953.0,
          952.0,
          952.0,
          952.0,
          954.0,
          954.0,
          953.0,
          952.0,
          952.0,
          953.0,
          953.0,
          953.0,
          952.0,
          952.0,
          952.0,
          952.0,
          952.0,
          953.0,
          953.0,
          954.0,
          952.0,
          953.0,
          953.0,
          952.0,
          952.0,
          953.0,
          952.0,
          952.0,
          953.0,
          954.0,
          952.0,
          952.0,
          952.0,
          954.0,
          954.0,
          953.0,
          952.0,
          952.0,
          952.0,
          953.0,
          952.0,
          952.0,
          954.0,
          953.0,
          953.0,
          953.0,
          953.0,
          951.0,
          951.0,
          951.0,
          952.0,
          951.0,
          951.0,
          951.0,
          952.0,
          952.0,
          953.0,
          952.0,
          952.0,
          951.0,
          952.0,
          952.0,
          952.0,
          954.0,
          955.0,
          954.0,
          953.0,
          952.0,
          953.0,
          952.0,
          952.0,
          952.0,
          952.0,
          952.0,
          952.0,
          953.0,
          953.0,
          952.0,
          953.0,
          954.0,
          954.0,
          954.0,
          954.0,
          954.0,
          954.0,
          954.0,
          953.0,
          953.0,
          953.0,
          952.0,
          953.0,
          953.0,
          953.0,
          952.0,
          952.0,
          952.0,
          952.0,
          953.0,
          953.0,
          952.0,
          953.0,
          953.0,
          952.0,
          952.0,
          953.0,
          954.0,
          953.0,
          953.0,
          952.0,
          954.0,
          954.0,
          952.0,
          952.0,
          953.0,
          955.0,
          953.0,
          953.0,
          953.0,
          954.0,
          953.0,
          954.0
        ],
        "WindowWidth": [
          2525.0,
          2527.0,
          2532.0,
          2530.0,
          2531.0,
          2533.0,
          2533.0,
          2535.0,
          2535.0,
          2536.0,
          2539.0,
          2543.0,
          2544.0,
          2534.0,
          2526.0,
          2530.0,
          2542.0,
          2542.0,
          2532.0,
          2531.0,
          2531.0,
          2529.0,
          2529.0,
          2530.0,
          2530.0,
          2529.0,
          2531.0,
          2531.0,
          2524.0,
          2523.0,
          2531.0,
          2538.0,
          2532.0,
          2525.0,
          2532.0,
          2541.0,
          2539.0,
          2531.0,
          2527.0,
          2539.0,
          2543.0,
          2534.0,
          2529.0,
          2530.0,
          2531.0,
          2527.0,
          2529.0,
          2535.0,
          2534.0,
          2526.0,
          2522.0,
          2528.0,
          2531.0,
          2527.0,
          2524.0,
          2526.0,
          2523.0,
          2523.0,
          2524.0,
          2524.0,
          2527.0,
          2529.0,
          2527.0,
          2529.0,
          2527.0,
          2523.0,
          2528.0,
          2535.0,
          2533.0,
          2530.0,
          2534.0,
          2537.0,
          2533.0,
          2528.0,
          2530.0,
          2534.0,
          2539.0,
          2535.0,
          2526.0,
          2517.0,
          2523.0,
          2529.0,
          2525.0,
          2518.0,
          2523.0,
          2530.0,
          2527.0,
          2528.0,
          2530.0,
          2524.0,
          2518.0,
          2518.0,
          2522.0,
          2521.0,
          2520.0,
          2522.0,
          2524.0,
          2527.0,
          2532.0,
          2532.0,
          2529.0,
          2526.0,
          2525.0,
          2526.0,
          2527.0,
          2532.0,
          2543.0,
          2541.0,
          2530.0,
          2524.0,
          2527.0,
          2524.0,
          2523.0,
          2524.0,
          2523.0,
          2522.0,
          2521.0,
          2526.0,
          2527.0,
          2522.0,
          2522.0,
          2525.0,
          2526.0,
          2527.0,
          2525.0,
          2526.0,
          2536.0,
          2539.0,
          2533.0,
          2525.0,
          2529.0,
          2529.0,
          2527.0,
          2527.0,
          2528.0,
          2524.0,
          2522.0,
          2523.0,
          2523.0,
          2521.0,
          2519.0,
