{
  "aor": 0.004632012195121951,
  "aqi": 0.0069948918292682925,
  "bids_meta": {
    "AcquisitionMatrixPE": 96,
    "AcquisitionNumber": 1,
    "AcquisitionTime": "11:23:42.760000",
    "BandwidthPerPixelPhaseEncode": 52.083,
    "BaseResolution": 96,
    "BodyPartExamined": "HEAD",
    "ConversionSoftware": "dcm2niix",
    "ConversionSoftwareVersion": "v1.0.20180622 GCC6.3.0",
    "DerivedVendorReportedEchoSpacing": 0.000600004,
    "DeviceSerialNumber": "18926",
    "DwellTime": 2.6e-06,
    "EchoTime": 0.025,
    "EffectiveEchoSpacing": 0.000200001,
    "FlipAngle": 50,
    "ImageOrientationPatientDICOM": [
      0.999992,
      0.000228905,
      0.00409774,
      1.99989e-10,
      0.998443,
      -0.0557745
    ],
    "ImageType": [
      "ORIGINAL",
      "PRIMARY",
      "M",
      "ND",
      "ECHO",
      "00",
      "MOSAIC"
    ],
    "InPlanePhaseEncodingDirectionDICOM": "ROW",
    "InstitutionName": "NIMH",
    "InstitutionalDepartmentName": "Department",
    "MRAcquisitionType": "2D",
    "MagneticFieldStrength": 6.98,
    "Manufacturer": "Siemens",
    "ManufacturersModelName": "Investigational_Device_7T",
    "Modality": "MR",
    "ParallelReductionFactorInPlane": 3,
    "PartialFourier": 1,
    "PatientPosition": "HFS",
    "PercentPhaseFOV": 100,
    "PhaseEncodingDirection": "i",
    "PhaseEncodingSteps": 94,
    "PhaseResolution": 1,
    "PixelBandwidth": 2003,
    "ProcedureStepDescription": "MRI_Procedure_Limited",
    "ProtocolName": "NIH_EPI_2.0iso_TR2_Run09",
    "PulseSequenceDetails": "%CustomerSeq%_inati_nih_epi",
    "ReceiveCoilName": "32Ch_Head_7T",
    "ReconMatrixPE": 96,
    "RepetitionTime": 2,
    "SAR": 0.0917494,
    "ScanningSequence": "EP",
    "SequenceName": "epfid2d1_96",
    "SequenceVariant": "SK",
    "SeriesDescription": "NIH_EPI_2.0iso_TR2_Run09",
    "SeriesNumber": 14,
    "ShimSetting": [
      -116,
      198,
      1010,
      2037,
      -170,
      849,
      901,
      -364
    ],
    "SliceThickness": 2,
    "SliceTiming": [
      1.0025,
      0,
      1.04,
      0.0375,
      1.0775,
      0.075,
      1.115,
      0.11,
      1.1525,
      0.1475,
      1.19,
      0.185,
      1.2275,
      0.2225,
      1.2625,
      0.26,
      1.3,
      0.2975,
      1.3375,
      0.335,
      1.375,
      0.3725,
      1.4125,
      0.4075,
      1.45,
      0.445,
      1.4875,
      0.4825,
      1.525,
      0.52,
      1.56,
      0.5575,
      1.5975,
      0.595,
      1.635,
      0.6325,
      1.6725,
      0.67,
      1.71,
      0.705,
      1.7475,
      0.7425,
      1.785,
      0.78,
      1.8225,
      0.8175,
      1.8575,
      0.855,
      1.895,
      0.8925,
      1.9325,
      0.93,
      1.97,
      0.9675
    ],
    "SoftwareVersions": "syngo_MR_B17",
    "SpacingBetweenSlices": 2,
    "StationName": "FMRIFD7T",
    "TaskName": "FullFovAttentionTask",
    "TotalReadoutTime": 0.0190001,
    "TxRefAmp": 278,
    "dataset": "ds001555",
    "dcmmeta_affine": [
      [
        -1.9999831914901733,
        3.999781894581389e-10,
        0.008208253420889378,
        95.76705169677734
      ],
      [
        -0.00045781099470332265,
        1.9968867301940918,
        -0.11154810339212418,
        -67.94931030273438
      ],
      [
        0.008195475675165653,
        0.11154904216527939,
        1.9968699216842651,
        -37.49588394165039
      ],
      [
        0.0,
        0.0,
        0.0,
        1.0
      ]
    ],
    "dcmmeta_reorient_transform": [
      [
        0.0,
        -1.0,
        0.0,
        95.0
      ],
      [
        1.0,
        0.0,
        0.0,
        0.0
      ],
      [
        0.0,
        0.0,
        1.0,
        0.0
      ],
      [
        0.0,
        0.0,
        0.0,
        1.0
      ]
    ],
    "dcmmeta_shape": [
      96,
      96,
      54,
      164
    ],
    "dcmmeta_slice_dim": 2,
    "dcmmeta_version": 0.6,
    "global": {
      "const": {
        "AcquisitionMatrix": [
          0,
          96,
          96,
          0
        ],
        "Allergies": "No Known Allergies",
        "AngioFlag": "N",
        "BitsAllocated": 16,
        "BitsStored": 12,
        "BodyPartExamined": "HEAD",
        "Columns": 768,
        "EchoNumbers": 1,
        "EchoTime": 25.0,
        "EchoTrainLength": 1,
        "FlipAngle": 50.0,
        "HighBit": 11,
        "ImageOrientationPatient": [
          0.99999157803714,
          0.00022890549908,
          0.00409773804192,
          1.999891e-10,
          0.99844338980486,
          -0.0557745224541
        ],
        "ImagePositionPatient": [
          -767.76139276693,
          -792.86271567672,
          7.8280730866619
        ],
        "ImageType": [
          "ORIGINAL",
          "PRIMARY",
          "M",
          "ND",
          "ECHO_00",
          "MOSAIC"
        ],
        "ImagedNucleus": "1H",
        "ImagingFrequency": 297.205072,
        "InPlanePhaseEncodingDirection": "ROW",
        "LargestImagePixelValue": 4095,
        "MRAcquisitionType": "2D",
        "MagneticFieldStrength": 6.98,
        "Manufacturer": "SIEMENS",
        "ManufacturerModelName": "Investigational_Device_7T",
        "Modality": "MR",
        "NumberOfAverages": 1.0,
        "NumberOfPhaseEncodingSteps": 94,
        "PercentPhaseFieldOfView": 100.0,
        "PercentSampling": 100.0,
        "PerformedProcedureStepStartTime": "101021.055000",
        "PhotometricInterpretation": "MONOCHROME2",
        "PixelBandwidth": 2003.0,
        "PixelRepresentation": 0,
        "PixelSpacing": [
          2.0,
          2.0
        ],
        "PositionReferenceIndicator": "",
        "ProcedureCodeSequence": [
          {
            "CodeMeaning": "MRI Procedure Limited",
            "CodeValue": "MI01491",
            "CodingSchemeDesignator": "USA Standard",
            "ContextIdentifier": "4000114368"
          }
        ],
        "ProtocolName": "NIH_EPI_2.0iso_TR2_Run09",
        "ReferencedStudySequence": [
          {
            "ReferencedSOPClassUID": "1.2.840.10008.3.1.2.3.1",
            "ReferencedSOPInstanceUID": "1.2.840.113564.9.1.2723958737.61.2.5000080179"
          }
        ],
        "RepetitionTime": 2000.0,
        "RequestedProcedureCodeSequence": [
          {
            "CodeMeaning": "MRI Procedure Limited",
            "CodeValue": "MI01491",
            "CodingSchemeDesignator": "USA Standard",
            "ContextIdentifier": "4000114368"
          }
        ],
        "RequestingService": "MHMI",
        "Rows": 768,
        "SAR": 0.09174936144599,
        "SamplesPerPixel": 1,
        "ScanningSequence": "EP",
        "SequenceName": "epfid2d1_96",
        "SequenceVariant": "SK",
        "SeriesDescription": "NIH_EPI_2.0iso_TR2_Run09",
        "SeriesNumber": 14,
        "SliceLocation": -33.254354983146,
        "SliceThickness": 2.0,
        "SmallestImagePixelValue": 0,
        "SoftwareVersions": "syngo MR B17",
        "SpacingBetweenSlices": 2.0000000076982,
        "TransmitCoilName": "32Ch_Head_7T",
        "VariableFlipAngleFlag": "N",
        "WindowCenterWidthExplanation": "Algo1",
        "dBdt": 0.0
      },
      "slices": {}
    },
    "modality": "bold",
    "run_id": 11,
    "session_id": "04",
    "subject_id": "003",
    "task_id": "FullFovAttentionTask",
    "time": {
      "samples": {
        "AcquisitionNumber": [
          1,
          2,
          3,
          4,
          5,
          6,
          7,
          8,
          9,
          10,
          11,
          12,
          13,
          14,
          15,
          16,
          17,
          18,
          19,
          20,
          21,
          22,
          23,
          24,
          25,
          26,
          27,
          28,
          29,
          30,
          31,
          32,
          33,
          34,
          35,
          36,
          37,
          38,
          39,
          40,
          41,
          42,
          43,
          44,
          45,
          46,
          47,
          48,
          49,
          50,
          51,
          52,
          53,
          54,
          55,
          56,
          57,
          58,
          59,
          60,
          61,
          62,
          63,
          64,
          65,
          66,
          67,
          68,
          69,
          70,
          71,
          72,
          73,
          74,
          75,
          76,
          77,
          78,
          79,
          80,
          81,
          82,
          83,
          84,
          85,
          86,
          87,
          88,
          89,
          90,
          91,
          92,
          93,
          94,
          95,
          96,
          97,
          98,
          99,
          100,
          101,
          102,
          103,
          104,
          105,
          106,
          107,
          108,
          109,
          110,
          111,
          112,
          113,
          114,
          115,
          116,
          117,
          118,
          119,
          120,
          121,
          122,
          123,
          124,
          125,
          126,
          127,
          128,
          129,
          130,
          131,
          132,
          133,
          134,
          135,
          136,
          137,
          138,
          139,
          140,
          141,
          142,
          143,
          144,
          145,
          146,
          147,
          148,
          149,
          150,
          151,
          152,
          153,
          154,
          155,
          156,
          157,
          158,
          159,
          160,
          161,
          162,
          163,
          164
        ],
        "AcquisitionTime": [
          "112342.760000",
          "112346.777500",
          "112348.785000",
          "112350.792500",
          "112352.800000",
          "112354.810000",
          "112356.817500",
          "112358.825000",
          "112400.832500",
          "112402.842500",
          "112404.850000",
          "112406.857500",
          "112408.865000",
          "112410.872500",
          "112412.882500",
          "112414.890000",
          "112416.897500",
          "112418.905000",
          "112420.912500",
          "112422.922500",
          "112424.930000",
          "112426.937500",
          "112428.945000",
          "112430.952500",
          "112432.962500",
          "112434.970000",
          "112436.977500",
          "112438.985000",
          "112440.995000",
          "112443.002500",
          "112445.010000",
          "112447.017500",
          "112449.025000",
          "112451.035000",
          "112453.042500",
          "112455.050000",
          "112457.057500",
          "112459.065000",
          "112501.075000",
          "112503.082500",
          "112505.090000",
          "112507.097500",
          "112509.107500",
          "112511.115000",
          "112513.122500",
          "112515.130000",
          "112517.137500",
          "112519.147500",
          "112521.155000",
          "112523.162500",
          "112525.170000",
          "112527.177500",
          "112529.187500",
          "112531.195000",
          "112533.202500",
          "112535.210000",
          "112537.220000",
          "112539.227500",
          "112541.235000",
          "112543.242500",
          "112545.250000",
          "112547.260000",
          "112549.267500",
          "112551.275000",
          "112553.282500",
          "112555.290000",
          "112557.300000",
          "112559.307500",
          "112601.315000",
          "112603.322500",
          "112605.330000",
          "112607.340000",
          "112609.347500",
          "112611.355000",
          "112613.362500",
          "112615.372500",
          "112617.380000",
          "112619.387500",
          "112621.395000",
          "112623.402500",
          "112625.412500",
          "112627.420000",
          "112629.427500",
          "112631.435000",
          "112633.442500",
          "112635.452500",
          "112637.460000",
          "112639.467500",
          "112641.475000",
          "112643.485000",
          "112645.492500",
          "112647.500000",
          "112649.507500",
          "112651.515000",
          "112653.525000",
          "112655.532500",
          "112657.540000",
          "112659.547500",
          "112701.555000",
          "112703.565000",
          "112705.572500",
          "112707.580000",
          "112709.587500",
          "112711.597500",
          "112713.605000",
          "112715.612500",
          "112717.620000",
          "112719.627500",
          "112721.637500",
          "112723.645000",
          "112725.652500",
          "112727.660000",
          "112729.667500",
          "112731.677500",
          "112733.685000",
          "112735.692500",
          "112737.700000",
          "112739.707500",
          "112741.717500",
          "112743.725000",
          "112745.732500",
          "112747.740000",
          "112749.750000",
          "112751.757500",
          "112753.765000",
          "112755.772500",
          "112757.780000",
          "112759.790000",
          "112801.797500",
          "112803.805000",
          "112805.812500",
          "112807.820000",
          "112809.830000",
          "112811.837500",
          "112813.845000",
          "112815.852500",
          "112817.862500",
          "112819.870000",
          "112821.877500",
          "112823.885000",
          "112825.892500",
          "112827.902500",
          "112829.910000",
          "112831.917500",
          "112833.925000",
          "112835.932500",
          "112837.942500",
          "112839.950000",
          "112841.957500",
          "112843.965000",
          "112845.975000",
          "112847.982500",
          "112849.990000",
          "112851.997500",
          "112854.005000",
          "112856.015000",
          "112858.022500",
          "112900.030000",
          "112902.037500",
          "112904.045000",
          "112906.055000",
          "112908.062500",
          "112910.070000",
          "112912.077500"
        ],
        "ContentTime": [
          "112435.508000",
          "112435.508000",
          "112435.508000",
          "112435.508000",
          "112435.523000",
          "112435.523000",
          "112435.523000",
          "112435.523000",
          "112435.523000",
          "112435.523000",
          "112435.539000",
          "112435.539000",
          "112435.539000",
          "112435.539000",
          "112435.539000",
          "112435.539000",
          "112435.555000",
          "112435.555000",
          "112435.555000",
          "112435.555000",
          "112435.555000",
          "112435.570000",
          "112435.570000",
          "112435.570000",
          "112435.570000",
          "112515.492000",
          "112515.492000",
          "112515.492000",
          "112515.508000",
          "112515.508000",
          "112515.508000",
          "112515.508000",
          "112515.508000",
          "112515.508000",
          "112515.523000",
          "112515.523000",
          "112515.523000",
          "112515.523000",
          "112515.523000",
          "112515.523000",
          "112515.539000",
          "112515.539000",
          "112515.539000",
          "112515.539000",
          "112515.539000",
          "112555.492000",
          "112555.492000",
          "112555.492000",
          "112555.508000",
          "112555.508000",
          "112555.508000",
          "112555.508000",
          "112555.523000",
          "112555.523000",
          "112555.523000",
          "112555.523000",
          "112555.523000",
          "112555.523000",
          "112555.523000",
          "112555.539000",
          "112555.539000",
          "112555.539000",
          "112555.539000",
          "112555.539000",
          "112555.539000",
          "112635.492000",
          "112635.492000",
          "112635.492000",
          "112635.508000",
          "112635.508000",
          "112635.508000",
          "112635.508000",
          "112635.508000",
          "112635.508000",
          "112635.523000",
          "112635.523000",
          "112635.523000",
          "112635.523000",
          "112635.523000",
          "112635.523000",
          "112635.539000",
          "112635.539000",
          "112635.539000",
          "112635.539000",
          "112635.539000",
          "112715.492000",
          "112715.492000",
          "112715.492000",
          "112715.508000",
          "112715.508000",
          "112715.508000",
          "112715.508000",
          "112715.508000",
          "112715.508000",
          "112715.523000",
          "112715.523000",
          "112715.523000",
          "112715.523000",
          "112715.539000",
          "112715.539000",
          "112715.539000",
          "112715.539000",
          "112715.539000",
          "112715.539000",
          "112715.555000",
          "112755.492000",
          "112755.492000",
          "112755.492000",
          "112755.508000",
          "112755.508000",
          "112755.508000",
          "112755.508000",
          "112755.523000",
          "112755.523000",
          "112755.539000",
          "112755.539000",
          "112755.539000",
          "112755.539000",
          "112755.539000",
          "112755.555000",
          "112755.555000",
          "112755.555000",
          "112755.570000",
          "112755.570000",
          "112755.570000",
          "112835.492000",
          "112835.492000",
          "112835.508000",
          "112835.508000",
          "112835.508000",
          "112835.508000",
          "112835.508000",
          "112835.508000",
          "112835.508000",
          "112835.523000",
          "112835.523000",
          "112835.523000",
          "112835.523000",
          "112835.523000",
          "112835.523000",
          "112835.539000",
          "112835.539000",
          "112835.539000",
          "112835.539000",
          "112835.539000",
          "112911.976000",
          "112911.976000",
          "112911.992000",
          "112911.992000",
          "112911.992000",
          "112911.992000",
          "112912.008000",
          "112912.008000",
          "112912.008000",
          "112912.008000",
          "112912.008000",
          "112912.008000",
          "112912.008000",
          "112912.023000",
          "112912.023000",
          "112912.023000",
          "112912.023000",
          "112912.039000",
          "112912.039000"
        ],
        "InstanceCreationTime": [
          "112435.508000",
          "112435.508000",
          "112435.508000",
          "112435.508000",
          "112435.523000",
          "112435.523000",
          "112435.523000",
          "112435.523000",
          "112435.523000",
          "112435.523000",
          "112435.539000",
          "112435.539000",
          "112435.539000",
          "112435.539000",
          "112435.539000",
          "112435.539000",
          "112435.555000",
          "112435.555000",
          "112435.555000",
          "112435.555000",
          "112435.555000",
          "112435.570000",
          "112435.570000",
          "112435.570000",
          "112435.570000",
          "112515.492000",
          "112515.492000",
          "112515.492000",
          "112515.508000",
          "112515.508000",
          "112515.508000",
          "112515.508000",
          "112515.508000",
          "112515.508000",
          "112515.523000",
          "112515.523000",
          "112515.523000",
          "112515.523000",
          "112515.523000",
          "112515.523000",
          "112515.539000",
          "112515.539000",
          "112515.539000",
          "112515.539000",
          "112515.539000",
          "112555.492000",
          "112555.492000",
          "112555.492000",
          "112555.508000",
          "112555.508000",
          "112555.508000",
          "112555.508000",
          "112555.523000",
          "112555.523000",
          "112555.523000",
          "112555.523000",
          "112555.523000",
          "112555.523000",
          "112555.523000",
          "112555.539000",
          "112555.539000",
          "112555.539000",
          "112555.539000",
          "112555.539000",
          "112555.539000",
          "112635.492000",
          "112635.492000",
          "112635.492000",
          "112635.508000",
          "112635.508000",
          "112635.508000",
          "112635.508000",
          "112635.508000",
          "112635.508000",
          "112635.523000",
          "112635.523000",
          "112635.523000",
          "112635.523000",
          "112635.523000",
          "112635.523000",
          "112635.539000",
          "112635.539000",
          "112635.539000",
          "112635.539000",
          "112635.539000",
          "112715.492000",
          "112715.492000",
          "112715.492000",
          "112715.508000",
          "112715.508000",
          "112715.508000",
          "112715.508000",
          "112715.508000",
          "112715.508000",
          "112715.523000",
          "112715.523000",
          "112715.523000",
          "112715.523000",
          "112715.539000",
          "112715.539000",
          "112715.539000",
          "112715.539000",
          "112715.539000",
          "112715.539000",
          "112715.555000",
          "112755.492000",
          "112755.492000",
          "112755.492000",
          "112755.508000",
          "112755.508000",
          "112755.508000",
          "112755.508000",
          "112755.523000",
          "112755.523000",
          "112755.539000",
          "112755.539000",
          "112755.539000",
          "112755.539000",
          "112755.539000",
          "112755.555000",
          "112755.555000",
          "112755.555000",
          "112755.570000",
          "112755.570000",
          "112755.570000",
          "112835.492000",
          "112835.492000",
          "112835.508000",
          "112835.508000",
          "112835.508000",
          "112835.508000",
          "112835.508000",
          "112835.508000",
          "112835.508000",
          "112835.523000",
          "112835.523000",
          "112835.523000",
          "112835.523000",
          "112835.523000",
          "112835.523000",
          "112835.539000",
          "112835.539000",
          "112835.539000",
          "112835.539000",
          "112835.539000",
          "112911.976000",
          "112911.976000",
          "112911.992000",
          "112911.992000",
          "112911.992000",
          "112911.992000",
          "112912.008000",
          "112912.008000",
          "112912.008000",
          "112912.008000",
          "112912.008000",
          "112912.008000",
          "112912.008000",
          "112912.023000",
          "112912.023000",
          "112912.023000",
          "112912.023000",
          "112912.039000",
          "112912.039000"
        ],
        "InstanceNumber": [
          1,
          2,
          3,
          4,
          5,
          6,
          7,
          8,
          9,
          10,
          11,
          12,
          13,
          14,
          15,
          16,
          17,
          18,
          19,
          20,
          21,
          22,
          23,
          24,
          25,
          26,
          27,
          28,
          29,
          30,
          31,
          32,
          33,
          34,
          35,
          36,
          37,
          38,
          39,
          40,
          41,
          42,
          43,
          44,
          45,
          46,
          47,
          48,
          49,
          50,
          51,
          52,
          53,
          54,
          55,
          56,
          57,
          58,
          59,
          60,
          61,
          62,
          63,
          64,
          65,
          66,
          67,
          68,
          69,
          70,
          71,
          72,
          73,
          74,
          75,
          76,
          77,
          78,
          79,
          80,
          81,
          82,
          83,
          84,
          85,
          86,
          87,
          88,
          89,
          90,
          91,
          92,
          93,
          94,
          95,
          96,
          97,
          98,
          99,
          100,
          101,
          102,
          103,
          104,
          105,
          106,
          107,
          108,
          109,
          110,
          111,
          112,
          113,
          114,
          115,
          116,
          117,
          118,
          119,
          120,
          121,
          122,
          123,
          124,
          125,
          126,
          127,
          128,
          129,
          130,
          131,
          132,
          133,
          134,
          135,
          136,
          137,
          138,
          139,
          140,
          141,
          142,
          143,
          144,
          145,
          146,
          147,
          148,
          149,
          150,
          151,
          152,
          153,
          154,
          155,
          156,
          157,
          158,
          159,
          160,
          161,
          162,
          163,
          164
        ],
        "WindowCenter": [
          956.0,
          955.0,
          956.0,
          956.0,
          955.0,
          955.0,
          955.0,
          955.0,
          956.0,
          955.0,
          956.0,
          955.0,
          956.0,
          957.0,
          955.0,
          954.0,
          955.0,
          956.0,
          956.0,
          956.0,
          956.0,
          956.0,
          955.0,
          956.0,
          956.0,
          956.0,
          956.0,
          957.0,
          956.0,
          956.0,
          957.0,
          958.0,
          957.0,
          956.0,
          956.0,
          956.0,
          956.0,
          958.0,
          958.0,
          957.0,
          956.0,
          956.0,
          956.0,
          956.0,
          956.0,
          957.0,
          957.0,
          957.0,
          957.0,
          958.0,
          958.0,
          956.0,
          956.0,
          956.0,
          956.0,
          956.0,
          956.0,
          955.0,
          956.0,
          956.0,
          956.0,
          957.0,
          956.0,
          957.0,
          957.0,
          956.0,
          957.0,
          957.0,
          957.0,
          958.0,
          956.0,
          956.0,
          956.0,
          957.0,
          957.0,
          956.0,
          956.0,
          957.0,
          956.0,
          956.0,
          956.0,
          956.0,
          956.0,
          957.0,
          957.0,
          956.0,
          957.0,
          957.0,
          957.0,
          957.0,
          957.0,
          957.0,
          957.0,
          958.0,
          956.0,
          956.0,
          957.0,
          957.0,
          956.0,
          956.0,
          956.0,
          956.0,
          957.0,
          957.0,
          956.0,
          955.0,
          956.0,
          956.0,
          957.0,
          956.0,
          956.0,
          956.0,
          956.0,
          956.0,
          956.0,
          956.0,
          956.0,
          956.0,
          955.0,
          957.0,
          956.0,
          956.0,
          956.0,
          956.0,
          956.0,
          956.0,
          957.0,
          957.0,
          957.0,
          957.0,
          957.0,
          956.0,
          956.0,
          956.0,
          956.0,
          955.0,
          955.0,
          955.0,
          956.0,
          956.0,
          955.0,
          955.0,
          955.0,
          956.0,
          957.0,
          957.0,
          957.0,
          957.0,
          957.0,
          957.0,
          956.0,
          955.0,
          955.0,
          956.0,
          956.0,
          955.0,
          955.0,
          955.0,
          955.0,
          957.0,
          958.0,
          957.0,
          957.0,
          956.0
        ],
        "WindowWidth": [
          2583.0,
          2584.0,
          2590.0,
          2590.0,
          2585.0,
          2582.0,
          2586.0,
          2590.0,
          2594.0,
          2594.0,
          2590.0,
          2590.0,
          2595.0,
          2597.0,
          2595.0,
          2592.0,
          2592.0,
          2593.0,
          2591.0,
          2589.0,
          2590.0,
          2590.0,
          2590.0,
          2589.0,
          2590.0,
          2591.0,
          2590.0,
          2591.0,
          2592.0,
          2591.0,
          2593.0,
          2597.0,
          2594.0,
          2589.0,
          2588.0,
          2589.0,
          2592.0,
          2598.0,
          2600.0,
          2598.0,
          2593.0,
          2593.0,
          2596.0,
          2595.0,
          2594.0,
          2595.0,
          2595.0,
          2593.0,
          2593.0,
          2595.0,
          2596.0,
          2591.0,
          2584.0,
          2584.0,
          2587.0,
          2586.0,
          2583.0,
          2581.0,
          2582.0,
          2583.0,
          2586.0,
          2586.0,
          2587.0,
          2590.0,
          2589.0,
          2588.0,
          2588.0,
          2596.0,
          2599.0,
          2588.0,
          2582.0,
          2588.0,
          2591.0,
          2591.0,
          2591.0,
          2588.0,
          2586.0,
          2585.0,
          2583.0,
          2581.0,
          2581.0,
          2581.0,
          2583.0,
          2586.0,
          2587.0,
          2588.0,
          2590.0,
          2591.0,
          2590.0,
          2591.0,
          2593.0,
