{
  "aor": 0.0010423170731707317,
  "aqi": 0.004186832560975609,
  "bids_meta": {
    "AcquisitionMatrixPE": 96,
    "AcquisitionNumber": 1,
    "AcquisitionTime": "11:37:24.507500",
    "BandwidthPerPixelPhaseEncode": 52.083,
    "BaseResolution": 96,
    "BodyPartExamined": "HEAD",
    "ConversionSoftware": "dcm2niix",
    "ConversionSoftwareVersion": "v1.0.20180622 GCC6.3.0",
    "DerivedVendorReportedEchoSpacing": 0.000600004,
    "DeviceSerialNumber": "18926",
    "DwellTime": 2.6e-06,
    "EchoTime": 0.025,
    "EffectiveEchoSpacing": 0.000200001,
    "FlipAngle": 50,
    "ImageOrientationPatientDICOM": [
      0.999992,
      0.000228905,
      0.00409774,
      1.99989e-10,
      0.998443,
      -0.0557745
    ],
    "ImageType": [
      "ORIGINAL",
      "PRIMARY",
      "M",
      "ND",
      "ECHO",
      "00",
      "MOSAIC"
    ],
    "InPlanePhaseEncodingDirectionDICOM": "ROW",
    "InstitutionName": "NIMH",
    "InstitutionalDepartmentName": "Department",
    "MRAcquisitionType": "2D",
    "MagneticFieldStrength": 6.98,
    "Manufacturer": "Siemens",
    "ManufacturersModelName": "Investigational_Device_7T",
    "Modality": "MR",
    "ParallelReductionFactorInPlane": 3,
    "PartialFourier": 1,
    "PatientPosition": "HFS",
    "PercentPhaseFOV": 100,
    "PhaseEncodingDirection": "i",
    "PhaseEncodingSteps": 94,
    "PhaseResolution": 1,
    "PixelBandwidth": 2003,
    "ProcedureStepDescription": "MRI_Procedure_Limited",
    "ProtocolName": "NIH_EPI_2.0iso_TR2_Run11",
    "PulseSequenceDetails": "%CustomerSeq%_inati_nih_epi",
    "ReceiveCoilName": "32Ch_Head_7T",
    "ReconMatrixPE": 96,
    "RepetitionTime": 2,
    "SAR": 0.0917494,
    "ScanningSequence": "EP",
    "SequenceName": "epfid2d1_96",
    "SequenceVariant": "SK",
    "SeriesDescription": "NIH_EPI_2.0iso_TR2_Run11",
    "SeriesNumber": 16,
    "ShimSetting": [
      -116,
      198,
      1010,
      2037,
      -170,
      849,
      901,
      -364
    ],
    "SliceThickness": 2,
    "SliceTiming": [
      1.005,
      0,
      1.0425,
      0.0375,
      1.08,
      0.075,
      1.1175,
      0.1125,
      1.1525,
      0.15,
      1.19,
      0.1875,
      1.2275,
      0.225,
      1.265,
      0.2625,
      1.3025,
      0.2975,
      1.34,
      0.335,
      1.3775,
      0.3725,
      1.415,
      0.41,
      1.45,
      0.4475,
      1.4875,
      0.485,
      1.525,
      0.5225,
      1.5625,
      0.56,
      1.6,
      0.595,
      1.6375,
      0.6325,
      1.675,
      0.67,
      1.7125,
      0.7075,
      1.7475,
      0.745,
      1.785,
      0.7825,
      1.8225,
      0.82,
      1.86,
      0.855,
      1.8975,
      0.8925,
      1.935,
      0.93,
      1.9725,
      0.9675
    ],
    "SoftwareVersions": "syngo_MR_B17",
    "SpacingBetweenSlices": 2,
    "StationName": "FMRIFD7T",
    "TaskName": "FullFovAttentionTask",
    "TotalReadoutTime": 0.0190001,
    "TxRefAmp": 278,
    "dataset": "ds001555",
    "dcmmeta_affine": [
      [
        -1.9999831914901733,
        3.999781894581389e-10,
        0.008208253420889378,
        95.76705169677734
      ],
      [
        -0.00045781099470332265,
        1.9968867301940918,
        -0.11154810339212418,
        -67.94931030273438
      ],
      [
        0.008195475675165653,
        0.11154904216527939,
        1.9968699216842651,
        -37.49588394165039
      ],
      [
        0.0,
        0.0,
        0.0,
        1.0
      ]
    ],
    "dcmmeta_reorient_transform": [
      [
        0.0,
        -1.0,
        0.0,
        95.0
      ],
      [
        1.0,
        0.0,
        0.0,
        0.0
      ],
      [
        0.0,
        0.0,
        1.0,
        0.0
      ],
      [
        0.0,
        0.0,
        0.0,
        1.0
      ]
    ],
    "dcmmeta_shape": [
      96,
      96,
      54,
      164
    ],
    "dcmmeta_slice_dim": 2,
    "dcmmeta_version": 0.6,
    "global": {
      "const": {
        "AcquisitionMatrix": [
          0,
          96,
          96,
          0
        ],
        "Allergies": "No Known Allergies",
        "AngioFlag": "N",
        "BitsAllocated": 16,
        "BitsStored": 12,
        "BodyPartExamined": "HEAD",
        "Columns": 768,
        "EchoNumbers": 1,
        "EchoTime": 25.0,
        "EchoTrainLength": 1,
        "FlipAngle": 50.0,
        "HighBit": 11,
        "ImageOrientationPatient": [
          0.99999157803714,
          0.00022890549908,
          0.00409773804192,
          1.999891e-10,
          0.99844338980486,
          -0.0557745224541
        ],
        "ImagePositionPatient": [
          -767.76139276693,
          -792.86271567672,
          7.8280730866619
        ],
        "ImageType": [
          "ORIGINAL",
          "PRIMARY",
          "M",
          "ND",
          "ECHO_00",
          "MOSAIC"
        ],
        "ImagedNucleus": "1H",
        "ImagingFrequency": 297.205107,
        "InPlanePhaseEncodingDirection": "ROW",
        "LargestImagePixelValue": 4095,
        "MRAcquisitionType": "2D",
        "MagneticFieldStrength": 6.98,
        "Manufacturer": "SIEMENS",
        "ManufacturerModelName": "Investigational_Device_7T",
        "Modality": "MR",
        "NumberOfAverages": 1.0,
        "NumberOfPhaseEncodingSteps": 94,
        "PercentPhaseFieldOfView": 100.0,
        "PercentSampling": 100.0,
        "PerformedProcedureStepStartTime": "101021.055000",
        "PhotometricInterpretation": "MONOCHROME2",
        "PixelBandwidth": 2003.0,
        "PixelRepresentation": 0,
        "PixelSpacing": [
          2.0,
          2.0
        ],
        "PositionReferenceIndicator": "",
        "ProcedureCodeSequence": [
          {
            "CodeMeaning": "MRI Procedure Limited",
            "CodeValue": "MI01491",
            "CodingSchemeDesignator": "USA Standard",
            "ContextIdentifier": "4000114368"
          }
        ],
        "ProtocolName": "NIH_EPI_2.0iso_TR2_Run11",
        "ReferencedStudySequence": [
          {
            "ReferencedSOPClassUID": "1.2.840.10008.3.1.2.3.1",
            "ReferencedSOPInstanceUID": "1.2.840.113564.9.1.2723958737.61.2.5000080179"
          }
        ],
        "RepetitionTime": 2000.0,
        "RequestedProcedureCodeSequence": [
          {
            "CodeMeaning": "MRI Procedure Limited",
            "CodeValue": "MI01491",
            "CodingSchemeDesignator": "USA Standard",
            "ContextIdentifier": "4000114368"
          }
        ],
        "RequestingService": "MHMI",
        "Rows": 768,
        "SAR": 0.09174936144599,
        "SamplesPerPixel": 1,
        "ScanningSequence": "EP",
        "SequenceName": "epfid2d1_96",
        "SequenceVariant": "SK",
        "SeriesDescription": "NIH_EPI_2.0iso_TR2_Run11",
        "SeriesNumber": 16,
        "SliceLocation": -33.254354983146,
        "SliceThickness": 2.0,
        "SmallestImagePixelValue": 0,
        "SoftwareVersions": "syngo MR B17",
        "SpacingBetweenSlices": 2.0000000076982,
        "TransmitCoilName": "32Ch_Head_7T",
        "VariableFlipAngleFlag": "N",
        "WindowCenterWidthExplanation": "Algo1",
        "dBdt": 0.0
      },
      "slices": {}
    },
    "modality": "bold",
    "run_id": 13,
    "session_id": "04",
    "subject_id": "003",
    "task_id": "FullFovAttentionTask",
    "time": {
      "samples": {
        "AcquisitionNumber": [
          1,
          2,
          3,
          4,
          5,
          6,
          7,
          8,
          9,
          10,
          11,
          12,
          13,
          14,
          15,
          16,
          17,
          18,
          19,
          20,
          21,
          22,
          23,
          24,
          25,
          26,
          27,
          28,
          29,
          30,
          31,
          32,
          33,
          34,
          35,
          36,
          37,
          38,
          39,
          40,
          41,
          42,
          43,
          44,
          45,
          46,
          47,
          48,
          49,
          50,
          51,
          52,
          53,
          54,
          55,
          56,
          57,
          58,
          59,
          60,
          61,
          62,
          63,
          64,
          65,
          66,
          67,
          68,
          69,
          70,
          71,
          72,
          73,
          74,
          75,
          76,
          77,
          78,
          79,
          80,
          81,
          82,
          83,
          84,
          85,
          86,
          87,
          88,
          89,
          90,
          91,
          92,
          93,
          94,
          95,
          96,
          97,
          98,
          99,
          100,
          101,
          102,
          103,
          104,
          105,
          106,
          107,
          108,
          109,
          110,
          111,
          112,
          113,
          114,
          115,
          116,
          117,
          118,
          119,
          120,
          121,
          122,
          123,
          124,
          125,
          126,
          127,
          128,
          129,
          130,
          131,
          132,
          133,
          134,
          135,
          136,
          137,
          138,
          139,
          140,
          141,
          142,
          143,
          144,
          145,
          146,
          147,
          148,
          149,
          150,
          151,
          152,
          153,
          154,
          155,
          156,
          157,
          158,
          159,
          160,
          161,
          162,
          163,
          164
        ],
        "AcquisitionTime": [
          "113724.507500",
          "113728.522500",
          "113730.532500",
          "113732.540000",
          "113734.547500",
          "113736.555000",
          "113738.562500",
          "113740.572500",
          "113742.580000",
          "113744.587500",
          "113746.595000",
          "113748.605000",
          "113750.612500",
          "113752.620000",
          "113754.627500",
          "113756.635000",
          "113758.645000",
          "113800.652500",
          "113802.660000",
          "113804.667500",
          "113806.675000",
          "113808.685000",
          "113810.692500",
          "113812.700000",
          "113814.707500",
          "113816.717500",
          "113818.725000",
          "113820.732500",
          "113822.740000",
          "113824.747500",
          "113826.757500",
          "113828.765000",
          "113830.772500",
          "113832.780000",
          "113834.787500",
          "113836.797500",
          "113838.805000",
          "113840.812500",
          "113842.820000",
          "113844.827500",
          "113846.837500",
          "113848.845000",
          "113850.852500",
          "113852.860000",
          "113854.870000",
          "113856.877500",
          "113858.885000",
          "113900.892500",
          "113902.900000",
          "113904.910000",
          "113906.917500",
          "113908.925000",
          "113910.932500",
          "113912.940000",
          "113914.950000",
          "113916.957500",
          "113918.965000",
          "113920.972500",
          "113922.982500",
          "113924.990000",
          "113926.997500",
          "113929.005000",
          "113931.012500",
          "113933.022500",
          "113935.030000",
          "113937.037500",
          "113939.045000",
          "113941.052500",
          "113943.062500",
          "113945.070000",
          "113947.077500",
          "113949.085000",
          "113951.095000",
          "113953.102500",
          "113955.110000",
          "113957.117500",
          "113959.125000",
          "114001.135000",
          "114003.142500",
          "114005.150000",
          "114007.157500",
          "114009.165000",
          "114011.175000",
          "114013.182500",
          "114015.190000",
          "114017.197500",
          "114019.205000",
          "114021.215000",
          "114023.222500",
          "114025.230000",
          "114027.237500",
          "114029.247500",
          "114031.255000",
          "114033.262500",
          "114035.270000",
          "114037.277500",
          "114039.287500",
          "114041.295000",
          "114043.302500",
          "114045.310000",
          "114047.317500",
          "114049.327500",
          "114051.335000",
          "114053.342500",
          "114055.350000",
          "114057.360000",
          "114059.367500",
          "114101.375000",
          "114103.382500",
          "114105.390000",
          "114107.400000",
          "114109.407500",
          "114111.415000",
          "114113.422500",
          "114115.430000",
          "114117.440000",
          "114119.447500",
          "114121.455000",
          "114123.462500",
          "114125.472500",
          "114127.480000",
          "114129.487500",
          "114131.495000",
          "114133.502500",
          "114135.512500",
          "114137.520000",
          "114139.527500",
          "114141.535000",
          "114143.542500",
          "114145.552500",
          "114147.560000",
          "114149.567500",
          "114151.575000",
          "114153.585000",
          "114155.592500",
          "114157.600000",
          "114159.607500",
          "114201.615000",
          "114203.625000",
          "114205.632500",
          "114207.640000",
          "114209.647500",
          "114211.655000",
          "114213.665000",
          "114215.672500",
          "114217.680000",
          "114219.687500",
          "114221.695000",
          "114223.705000",
          "114225.712500",
          "114227.720000",
          "114229.727500",
          "114231.737500",
          "114233.745000",
          "114235.752500",
          "114237.760000",
          "114239.767500",
          "114241.777500",
          "114243.785000",
          "114245.792500",
          "114247.800000",
          "114249.807500",
          "114251.817500",
          "114253.825000"
        ],
        "ContentTime": [
          "113821.836000",
          "113821.851000",
          "113821.851000",
          "113821.851000",
          "113821.851000",
          "113821.851000",
          "113821.851000",
          "113821.867000",
          "113821.867000",
          "113821.867000",
          "113821.867000",
          "113821.867000",
          "113821.883000",
          "113821.883000",
          "113821.883000",
          "113821.883000",
          "113821.883000",
          "113821.883000",
          "113821.883000",
          "113821.898000",
          "113821.898000",
          "113821.898000",
          "113821.898000",
          "113821.898000",
          "113821.898000",
          "113821.914000",
          "113821.914000",
          "113821.914000",
          "113921.836000",
          "113921.836000",
          "113921.836000",
          "113921.851000",
          "113921.851000",
          "113921.851000",
          "113921.851000",
          "113921.851000",
          "113921.851000",
          "113921.867000",
          "113921.867000",
          "113921.867000",
          "113921.867000",
          "113921.867000",
          "113921.867000",
          "113921.867000",
          "113921.883000",
          "113921.883000",
          "113921.883000",
          "113921.883000",
          "113921.883000",
          "113921.898000",
          "113921.898000",
          "113921.898000",
          "113921.898000",
          "113921.898000",
          "113921.898000",
          "113921.914000",
          "113921.914000",
          "113921.914000",
          "114001.836000",
          "114001.836000",
          "114001.836000",
          "114001.836000",
          "114001.851000",
          "114001.851000",
          "114001.851000",
          "114001.851000",
          "114001.851000",
          "114001.851000",
          "114001.867000",
          "114001.867000",
          "114001.867000",
          "114001.867000",
          "114001.867000",
          "114001.867000",
          "114001.867000",
          "114001.883000",
          "114001.883000",
          "114001.883000",
          "114041.836000",
          "114041.836000",
          "114041.836000",
          "114041.836000",
          "114041.851000",
          "114041.851000",
          "114041.851000",
          "114041.851000",
          "114041.851000",
          "114041.851000",
          "114041.867000",
          "114041.867000",
          "114041.867000",
          "114041.867000",
          "114041.867000",
          "114041.867000",
          "114041.867000",
          "114041.883000",
          "114041.883000",
          "114041.883000",
          "114121.836000",
          "114121.836000",
          "114121.836000",
          "114121.836000",
          "114121.851000",
          "114121.851000",
          "114121.851000",
          "114121.851000",
          "114121.867000",
          "114121.867000",
          "114121.867000",
          "114121.867000",
          "114121.867000",
          "114121.867000",
          "114121.883000",
          "114121.883000",
          "114121.883000",
          "114121.883000",
          "114121.883000",
          "114121.898000",
          "114201.836000",
          "114201.836000",
          "114201.836000",
          "114201.836000",
          "114201.851000",
          "114201.851000",
          "114201.851000",
          "114201.851000",
          "114201.851000",
          "114201.867000",
          "114201.867000",
          "114201.867000",
          "114201.867000",
          "114201.867000",
          "114201.867000",
          "114201.867000",
          "114201.883000",
          "114201.883000",
          "114201.883000",
          "114201.883000",
          "114241.836000",
          "114241.836000",
          "114241.836000",
          "114241.851000",
          "114241.851000",
          "114241.851000",
          "114241.851000",
          "114241.851000",
          "114241.851000",
          "114241.867000",
          "114241.867000",
          "114241.867000",
          "114241.867000",
          "114241.867000",
          "114241.867000",
          "114241.883000",
          "114241.883000",
          "114241.883000",
          "114241.883000",
          "114241.883000",
          "114253.664000",
          "114253.680000",
          "114253.680000",
          "114253.680000",
          "114253.680000",
          "114253.680000"
        ],
        "InstanceCreationTime": [
          "113821.836000",
          "113821.851000",
          "113821.851000",
          "113821.851000",
          "113821.851000",
          "113821.851000",
          "113821.851000",
          "113821.867000",
          "113821.867000",
          "113821.867000",
          "113821.867000",
          "113821.867000",
          "113821.883000",
          "113821.883000",
          "113821.883000",
          "113821.883000",
          "113821.883000",
          "113821.883000",
          "113821.883000",
          "113821.898000",
          "113821.898000",
          "113821.898000",
          "113821.898000",
          "113821.898000",
          "113821.898000",
          "113821.914000",
          "113821.914000",
          "113821.914000",
          "113921.836000",
          "113921.836000",
          "113921.836000",
          "113921.851000",
          "113921.851000",
          "113921.851000",
          "113921.851000",
          "113921.851000",
          "113921.851000",
          "113921.867000",
          "113921.867000",
          "113921.867000",
          "113921.867000",
          "113921.867000",
          "113921.867000",
          "113921.867000",
          "113921.883000",
          "113921.883000",
          "113921.883000",
          "113921.883000",
          "113921.883000",
          "113921.898000",
          "113921.898000",
          "113921.898000",
          "113921.898000",
          "113921.898000",
          "113921.898000",
          "113921.914000",
          "113921.914000",
          "113921.914000",
          "114001.836000",
          "114001.836000",
          "114001.836000",
          "114001.836000",
          "114001.851000",
          "114001.851000",
          "114001.851000",
          "114001.851000",
          "114001.851000",
          "114001.851000",
          "114001.867000",
          "114001.867000",
          "114001.867000",
          "114001.867000",
          "114001.867000",
          "114001.867000",
          "114001.867000",
          "114001.883000",
          "114001.883000",
          "114001.883000",
          "114041.836000",
          "114041.836000",
          "114041.836000",
          "114041.836000",
          "114041.851000",
          "114041.851000",
          "114041.851000",
          "114041.851000",
          "114041.851000",
          "114041.851000",
          "114041.867000",
          "114041.867000",
          "114041.867000",
          "114041.867000",
          "114041.867000",
          "114041.867000",
          "114041.867000",
          "114041.883000",
          "114041.883000",
          "114041.883000",
          "114121.836000",
          "114121.836000",
          "114121.836000",
          "114121.836000",
          "114121.851000",
          "114121.851000",
          "114121.851000",
          "114121.851000",
          "114121.867000",
          "114121.867000",
          "114121.867000",
          "114121.867000",
          "114121.867000",
          "114121.867000",
          "114121.883000",
          "114121.883000",
          "114121.883000",
          "114121.883000",
          "114121.883000",
          "114121.898000",
          "114201.836000",
          "114201.836000",
          "114201.836000",
          "114201.836000",
          "114201.851000",
          "114201.851000",
          "114201.851000",
          "114201.851000",
          "114201.851000",
          "114201.867000",
          "114201.867000",
          "114201.867000",
          "114201.867000",
          "114201.867000",
          "114201.867000",
          "114201.867000",
          "114201.883000",
          "114201.883000",
          "114201.883000",
          "114201.883000",
          "114241.836000",
          "114241.836000",
          "114241.836000",
          "114241.851000",
          "114241.851000",
          "114241.851000",
          "114241.851000",
          "114241.851000",
          "114241.851000",
          "114241.867000",
          "114241.867000",
          "114241.867000",
          "114241.867000",
          "114241.867000",
          "114241.867000",
          "114241.883000",
          "114241.883000",
          "114241.883000",
          "114241.883000",
          "114241.883000",
          "114253.664000",
          "114253.680000",
          "114253.680000",
          "114253.680000",
          "114253.680000",
          "114253.680000"
        ],
        "InstanceNumber": [
          1,
          2,
          3,
          4,
          5,
          6,
          7,
          8,
          9,
          10,
          11,
          12,
          13,
          14,
          15,
          16,
          17,
          18,
          19,
          20,
          21,
          22,
          23,
          24,
          25,
          26,
          27,
          28,
          29,
          30,
          31,
          32,
          33,
          34,
          35,
          36,
          37,
          38,
          39,
          40,
          41,
          42,
          43,
          44,
          45,
          46,
          47,
          48,
          49,
          50,
          51,
          52,
          53,
          54,
          55,
          56,
          57,
          58,
          59,
          60,
          61,
          62,
          63,
          64,
          65,
          66,
          67,
          68,
          69,
          70,
          71,
          72,
          73,
          74,
          75,
          76,
          77,
          78,
          79,
          80,
          81,
          82,
          83,
          84,
          85,
          86,
          87,
          88,
          89,
          90,
          91,
          92,
          93,
          94,
          95,
          96,
          97,
          98,
          99,
          100,
          101,
          102,
          103,
          104,
          105,
          106,
          107,
          108,
          109,
          110,
          111,
          112,
          113,
          114,
          115,
          116,
          117,
          118,
          119,
          120,
          121,
          122,
          123,
          124,
          125,
          126,
          127,
          128,
          129,
          130,
          131,
          132,
          133,
          134,
          135,
          136,
          137,
          138,
          139,
          140,
          141,
          142,
          143,
          144,
          145,
          146,
          147,
          148,
          149,
          150,
          151,
          152,
          153,
          154,
          155,
          156,
          157,
          158,
          159,
          160,
          161,
          162,
          163,
          164
        ],
        "WindowCenter": [
          952.0,
          952.0,
          953.0,
          952.0,
          952.0,
          951.0,
          951.0,
          953.0,
          952.0,
          953.0,
          952.0,
          952.0,
          952.0,
          951.0,
          952.0,
          952.0,
          951.0,
          952.0,
          952.0,
          951.0,
          951.0,
          952.0,
          952.0,
          953.0,
          953.0,
          954.0,
          953.0,
          953.0,
          953.0,
          953.0,
          953.0,
          952.0,
          951.0,
          951.0,
          952.0,
          953.0,
          953.0,
          952.0,
          952.0,
          952.0,
          953.0,
          953.0,
          952.0,
          952.0,
          951.0,
          952.0,
          952.0,
          953.0,
          953.0,
          952.0,
          951.0,
          952.0,
          952.0,
          951.0,
          951.0,
          951.0,
          951.0,
          951.0,
          952.0,
          953.0,
          952.0,
          952.0,
          953.0,
          952.0,
          952.0,
          953.0,
          952.0,
          951.0,
          951.0,
          950.0,
          951.0,
          951.0,
          952.0,
          951.0,
          950.0,
          951.0,
          952.0,
          952.0,
          951.0,
          951.0,
          952.0,
          953.0,
          953.0,
          952.0,
          951.0,
          951.0,
          951.0,
          951.0,
          951.0,
          951.0,
          951.0,
          951.0,
          951.0,
          951.0,
          951.0,
          951.0,
          951.0,
          951.0,
          952.0,
          952.0,
          952.0,
          951.0,
          952.0,
          952.0,
          952.0,
          951.0,
          952.0,
          951.0,
          951.0,
          952.0,
          952.0,
          952.0,
          952.0,
          953.0,
          953.0,
          953.0,
          951.0,
          951.0,
          951.0,
          952.0,
          952.0,
          951.0,
          950.0,
          952.0,
          951.0,
          951.0,
          951.0,
          951.0,
          951.0,
          950.0,
          949.0,
          949.0,
          949.0,
          949.0,
          950.0,
          950.0,
          951.0,
          952.0,
          952.0,
          951.0,
          951.0,
          951.0,
          952.0,
          952.0,
          951.0,
          951.0,
          951.0,
          951.0,
          952.0,
          951.0,
          951.0,
          950.0,
          951.0,
          951.0,
          950.0,
          950.0,
          951.0,
          951.0,
          952.0,
          952.0,
          951.0,
          951.0,
          951.0,
          951.0
        ],
        "WindowWidth": [
          2576.0,
          2580.0,
          2580.0,
          2574.0,
          2570.0,
          2571.0,
          2574.0,
          2579.0,
          2580.0,
          2577.0,
          2575.0,
          2575.0,
          2578.0,
          2579.0,
          2574.0,
          2573.0,
          2578.0,
          2577.0,
          2573.0,
          2572.0,
          2573.0,
          2577.0,
          2583.0,
          2589.0,
          2592.0,
          2587.0,
          2581.0,
          2577.0,
          2575.0,
          2577.0,
          2575.0,
          2571.0,
          2570.0,
          2572.0,
          2577.0,
          2582.0,
          2583.0,
          2583.0,
          2581.0,
          2584.0,
          2586.0,
          2584.0,
          2581.0,
          2577.0,
          2578.0,
          2578.0,
          2581.0,
          2586.0,
          2580.0,
          2570.0,
          2565.0,
          2567.0,
          2568.0,
          2567.0,
          2566.0,
          2566.0,
          2564.0,
          2563.0,
          2568.0,
          2572.0,
          2570.0,
          2569.0,
          2570.0,
          2572.0,
          2573.0,
          2572.0,
          2573.0,
          2572.0,
          2568.0,
          2570.0,
          2571.0,
          2575.0,
          2573.0,
          2570.0,
          2570.0,
          2575.0,
          2578.0,
          2576.0,
          2577.0,
          2579.0,
          2580.0,
          2588.0,
          2587.0,
          2577.0,
          2567.0,
          2563.0,
          2564.0,
          2566.0,
          2566.0,
          2563.0,
          2564.0,
