{
  "aor": 0.0012374999999999999,
  "aqi": 0.008211966890243902,
  "bids_meta": {
    "AcquisitionMatrixPE": 96,
    "AcquisitionNumber": 1,
    "AcquisitionTime": "10:50:29.655000",
    "BandwidthPerPixelPhaseEncode": 52.083,
    "BaseResolution": 96,
    "BodyPartExamined": "HEAD",
    "ConversionSoftware": "dcm2niix",
    "ConversionSoftwareVersion": "v1.0.20180622 GCC6.3.0",
    "DerivedVendorReportedEchoSpacing": 0.000600004,
    "DeviceSerialNumber": "18926",
    "DwellTime": 2.6e-06,
    "EchoTime": 0.025,
    "EffectiveEchoSpacing": 0.000200001,
    "FlipAngle": 50,
    "ImageOrientationPatientDICOM": [
      0.999992,
      0.000228905,
      0.00409774,
      1.99989e-10,
      0.998443,
      -0.0557745
    ],
    "ImageType": [
      "ORIGINAL",
      "PRIMARY",
      "M",
      "ND",
      "ECHO",
      "00",
      "MOSAIC"
    ],
    "InPlanePhaseEncodingDirectionDICOM": "ROW",
    "InstitutionName": "NIMH",
    "InstitutionalDepartmentName": "Department",
    "MRAcquisitionType": "2D",
    "MagneticFieldStrength": 6.98,
    "Manufacturer": "Siemens",
    "ManufacturersModelName": "Investigational_Device_7T",
    "Modality": "MR",
    "ParallelReductionFactorInPlane": 3,
    "PartialFourier": 1,
    "PatientPosition": "HFS",
    "PercentPhaseFOV": 100,
    "PhaseEncodingDirection": "i",
    "PhaseEncodingSteps": 94,
    "PhaseResolution": 1,
    "PixelBandwidth": 2003,
    "ProcedureStepDescription": "MRI_Procedure_Limited",
    "ProtocolName": "NIH_EPI_2.0iso_TR2_Run04",
    "PulseSequenceDetails": "%CustomerSeq%_inati_nih_epi",
    "ReceiveCoilName": "32Ch_Head_7T",
    "ReconMatrixPE": 96,
    "RepetitionTime": 2,
    "SAR": 0.0917494,
    "ScanningSequence": "EP",
    "SequenceName": "epfid2d1_96",
    "SequenceVariant": "SK",
    "SeriesDescription": "NIH_EPI_2.0iso_TR2_Run04",
    "SeriesNumber": 9,
    "ShimSetting": [
      -116,
      198,
      1010,
      2037,
      -170,
      849,
      901,
      -364
    ],
    "SliceThickness": 2,
    "SliceTiming": [
      1.0025,
      0,
      1.04,
      0.0375,
      1.0775,
      0.075,
      1.115,
      0.1125,
      1.1525,
      0.1475,
      1.19,
      0.185,
      1.2275,
      0.2225,
      1.265,
      0.26,
      1.3,
      0.2975,
      1.3375,
      0.335,
      1.375,
      0.3725,
      1.4125,
      0.4075,
      1.45,
      0.445,
      1.4875,
      0.4825,
      1.525,
      0.52,
      1.5625,
      0.5575,
      1.5975,
      0.595,
      1.635,
      0.6325,
      1.6725,
      0.67,
      1.71,
      0.705,
      1.7475,
      0.7425,
      1.785,
      0.78,
      1.8225,
      0.8175,
      1.8575,
      0.855,
      1.895,
      0.8925,
      1.9325,
      0.93,
      1.97,
      0.9675
    ],
    "SoftwareVersions": "syngo_MR_B17",
    "SpacingBetweenSlices": 2,
    "StationName": "FMRIFD7T",
    "TaskName": "FullFovAttentionTask",
    "TotalReadoutTime": 0.0190001,
    "TxRefAmp": 278,
    "dataset": "ds001555",
    "dcmmeta_affine": [
      [
        -1.9999831914901733,
        3.999781894581389e-10,
        0.008208253420889378,
        95.76705169677734
      ],
      [
        -0.00045781099470332265,
        1.9968867301940918,
        -0.11154810339212418,
        -67.94931030273438
      ],
      [
        0.008195475675165653,
        0.11154904216527939,
        1.9968699216842651,
        -37.49588394165039
      ],
      [
        0.0,
        0.0,
        0.0,
        1.0
      ]
    ],
    "dcmmeta_reorient_transform": [
      [
        0.0,
        -1.0,
        0.0,
        95.0
      ],
      [
        1.0,
        0.0,
        0.0,
        0.0
      ],
      [
        0.0,
        0.0,
        1.0,
        0.0
      ],
      [
        0.0,
        0.0,
        0.0,
        1.0
      ]
    ],
    "dcmmeta_shape": [
      96,
      96,
      54,
      164
    ],
    "dcmmeta_slice_dim": 2,
    "dcmmeta_version": 0.6,
    "global": {
      "const": {
        "AcquisitionMatrix": [
          0,
          96,
          96,
          0
        ],
        "Allergies": "No Known Allergies",
        "AngioFlag": "N",
        "BitsAllocated": 16,
        "BitsStored": 12,
        "BodyPartExamined": "HEAD",
        "Columns": 768,
        "EchoNumbers": 1,
        "EchoTime": 25.0,
        "EchoTrainLength": 1,
        "FlipAngle": 50.0,
        "HighBit": 11,
        "ImageOrientationPatient": [
          0.99999157803714,
          0.00022890549908,
          0.00409773804192,
          1.999891e-10,
          0.99844338980486,
          -0.0557745224541
        ],
        "ImagePositionPatient": [
          -767.76139276693,
          -792.86271567672,
          7.8280730866619
        ],
        "ImageType": [
          "ORIGINAL",
          "PRIMARY",
          "M",
          "ND",
          "ECHO_00",
          "MOSAIC"
        ],
        "ImagedNucleus": "1H",
        "ImagingFrequency": 297.204947,
        "InPlanePhaseEncodingDirection": "ROW",
        "LargestImagePixelValue": 4095,
        "MRAcquisitionType": "2D",
        "MagneticFieldStrength": 6.98,
        "Manufacturer": "SIEMENS",
        "ManufacturerModelName": "Investigational_Device_7T",
        "Modality": "MR",
        "NumberOfAverages": 1.0,
        "NumberOfPhaseEncodingSteps": 94,
        "PercentPhaseFieldOfView": 100.0,
        "PercentSampling": 100.0,
        "PerformedProcedureStepStartTime": "101021.055000",
        "PhotometricInterpretation": "MONOCHROME2",
        "PixelBandwidth": 2003.0,
        "PixelRepresentation": 0,
        "PixelSpacing": [
          2.0,
          2.0
        ],
        "PositionReferenceIndicator": "",
        "ProcedureCodeSequence": [
          {
            "CodeMeaning": "MRI Procedure Limited",
            "CodeValue": "MI01491",
            "CodingSchemeDesignator": "USA Standard",
            "ContextIdentifier": "4000114368"
          }
        ],
        "ProtocolName": "NIH_EPI_2.0iso_TR2_Run04",
        "ReferencedStudySequence": [
          {
            "ReferencedSOPClassUID": "1.2.840.10008.3.1.2.3.1",
            "ReferencedSOPInstanceUID": "1.2.840.113564.9.1.2723958737.61.2.5000080179"
          }
        ],
        "RepetitionTime": 2000.0,
        "RequestedProcedureCodeSequence": [
          {
            "CodeMeaning": "MRI Procedure Limited",
            "CodeValue": "MI01491",
            "CodingSchemeDesignator": "USA Standard",
            "ContextIdentifier": "4000114368"
          }
        ],
        "RequestingService": "MHMI",
        "Rows": 768,
        "SAR": 0.09174936144599,
        "SamplesPerPixel": 1,
        "ScanningSequence": "EP",
        "SequenceName": "epfid2d1_96",
        "SequenceVariant": "SK",
        "SeriesDescription": "NIH_EPI_2.0iso_TR2_Run04",
        "SeriesNumber": 9,
        "SliceLocation": -33.254354983146,
        "SliceThickness": 2.0,
        "SmallestImagePixelValue": 0,
        "SoftwareVersions": "syngo MR B17",
        "SpacingBetweenSlices": 2.0000000076982,
        "TransmitCoilName": "32Ch_Head_7T",
        "VariableFlipAngleFlag": "N",
        "WindowCenterWidthExplanation": "Algo1",
        "dBdt": 0.0
      },
      "slices": {}
    },
    "modality": "bold",
    "run_id": 6,
    "session_id": "04",
    "subject_id": "003",
    "task_id": "FullFovAttentionTask",
    "time": {
      "samples": {
        "AcquisitionNumber": [
          1,
          2,
          3,
          4,
          5,
          6,
          7,
          8,
          9,
          10,
          11,
          12,
          13,
          14,
          15,
          16,
          17,
          18,
          19,
          20,
          21,
          22,
          23,
          24,
          25,
          26,
          27,
          28,
          29,
          30,
          31,
          32,
          33,
          34,
          35,
          36,
          37,
          38,
          39,
          40,
          41,
          42,
          43,
          44,
          45,
          46,
          47,
          48,
          49,
          50,
          51,
          52,
          53,
          54,
          55,
          56,
          57,
          58,
          59,
          60,
          61,
          62,
          63,
          64,
          65,
          66,
          67,
          68,
          69,
          70,
          71,
          72,
          73,
          74,
          75,
          76,
          77,
          78,
          79,
          80,
          81,
          82,
          83,
          84,
          85,
          86,
          87,
          88,
          89,
          90,
          91,
          92,
          93,
          94,
          95,
          96,
          97,
          98,
          99,
          100,
          101,
          102,
          103,
          104,
          105,
          106,
          107,
          108,
          109,
          110,
          111,
          112,
          113,
          114,
          115,
          116,
          117,
          118,
          119,
          120,
          121,
          122,
          123,
          124,
          125,
          126,
          127,
          128,
          129,
          130,
          131,
          132,
          133,
          134,
          135,
          136,
          137,
          138,
          139,
          140,
          141,
          142,
          143,
          144,
          145,
          146,
          147,
          148,
          149,
          150,
          151,
          152,
          153,
          154,
          155,
          156,
          157,
          158,
          159,
          160,
          161,
          162,
          163,
          164
        ],
        "AcquisitionTime": [
          "105029.655000",
          "105033.672500",
          "105035.680000",
          "105037.687500",
          "105039.697500",
          "105041.705000",
          "105043.712500",
          "105045.720000",
          "105047.727500",
          "105049.737500",
          "105051.745000",
          "105053.752500",
          "105055.760000",
          "105057.767500",
          "105059.777500",
          "105101.785000",
          "105103.792500",
          "105105.800000",
          "105107.807500",
          "105109.817500",
          "105111.825000",
          "105113.832500",
          "105115.840000",
          "105117.850000",
          "105119.857500",
          "105121.865000",
          "105123.872500",
          "105125.880000",
          "105127.890000",
          "105129.897500",
          "105131.905000",
          "105133.912500",
          "105135.920000",
          "105137.930000",
          "105139.937500",
          "105141.945000",
          "105143.952500",
          "105145.962500",
          "105147.970000",
          "105149.977500",
          "105151.985000",
          "105153.992500",
          "105156.002500",
          "105158.010000",
          "105200.017500",
          "105202.025000",
          "105204.032500",
          "105206.042500",
          "105208.050000",
          "105210.057500",
          "105212.065000",
          "105214.075000",
          "105216.082500",
          "105218.090000",
          "105220.097500",
          "105222.105000",
          "105224.115000",
          "105226.122500",
          "105228.130000",
          "105230.137500",
          "105232.145000",
          "105234.155000",
          "105236.162500",
          "105238.170000",
          "105240.177500",
          "105242.185000",
          "105244.195000",
          "105246.202500",
          "105248.210000",
          "105250.217500",
          "105252.227500",
          "105254.235000",
          "105256.242500",
          "105258.250000",
          "105300.257500",
          "105302.267500",
          "105304.275000",
          "105306.282500",
          "105308.290000",
          "105310.297500",
          "105312.307500",
          "105314.315000",
          "105316.322500",
          "105318.330000",
          "105320.340000",
          "105322.347500",
          "105324.355000",
          "105326.362500",
          "105328.370000",
          "105330.380000",
          "105332.387500",
          "105334.395000",
          "105336.402500",
          "105338.410000",
          "105340.420000",
          "105342.427500",
          "105344.435000",
          "105346.442500",
          "105348.452500",
          "105350.460000",
          "105352.467500",
          "105354.475000",
          "105356.482500",
          "105358.492500",
          "105400.500000",
          "105402.507500",
          "105404.515000",
          "105406.522500",
          "105408.532500",
          "105410.540000",
          "105412.547500",
          "105414.555000",
          "105416.562500",
          "105418.572500",
          "105420.580000",
          "105422.587500",
          "105424.595000",
          "105426.605000",
          "105428.612500",
          "105430.620000",
          "105432.627500",
          "105434.635000",
          "105436.645000",
          "105438.652500",
          "105440.660000",
          "105442.667500",
          "105444.675000",
          "105446.685000",
          "105448.692500",
          "105450.700000",
          "105452.707500",
          "105454.717500",
          "105456.725000",
          "105458.732500",
          "105500.740000",
          "105502.747500",
          "105504.757500",
          "105506.765000",
          "105508.772500",
          "105510.780000",
          "105512.787500",
          "105514.797500",
          "105516.805000",
          "105518.812500",
          "105520.820000",
          "105522.830000",
          "105524.837500",
          "105526.845000",
          "105528.852500",
          "105530.860000",
          "105532.870000",
          "105534.877500",
          "105536.885000",
          "105538.892500",
          "105540.900000",
          "105542.910000",
          "105544.917500",
          "105546.925000",
          "105548.932500",
          "105550.940000",
          "105552.950000",
          "105554.957500",
          "105556.965000",
          "105558.972500"
        ],
        "ContentTime": [
          "105127.898000",
          "105127.914000",
          "105127.914000",
          "105127.914000",
          "105127.914000",
          "105127.914000",
          "105127.914000",
          "105127.930000",
          "105127.930000",
          "105127.930000",
          "105127.930000",
          "105127.930000",
          "105127.930000",
          "105127.930000",
          "105127.945000",
          "105127.945000",
          "105127.945000",
          "105127.945000",
          "105127.945000",
          "105127.961000",
          "105127.961000",
          "105127.961000",
          "105127.961000",
          "105127.961000",
          "105127.976000",
          "105127.976000",
          "105127.976000",
          "105127.976000",
          "105207.898000",
          "105207.898000",
          "105207.898000",
          "105207.898000",
          "105207.914000",
          "105207.914000",
          "105207.914000",
          "105207.914000",
          "105207.914000",
          "105207.914000",
          "105207.914000",
          "105207.930000",
          "105207.930000",
          "105207.930000",
          "105207.930000",
          "105207.930000",
          "105207.945000",
          "105207.945000",
          "105207.945000",
          "105207.945000",
          "105247.898000",
          "105247.898000",
          "105247.898000",
          "105247.898000",
          "105247.898000",
          "105247.914000",
          "105247.914000",
          "105247.914000",
          "105247.930000",
          "105247.930000",
          "105247.930000",
          "105247.945000",
          "105247.945000",
          "105247.945000",
          "105247.945000",
          "105247.945000",
          "105247.945000",
          "105247.945000",
          "105247.961000",
          "105247.961000",
          "105327.898000",
          "105327.898000",
          "105327.914000",
          "105327.914000",
          "105327.914000",
          "105327.914000",
          "105327.914000",
          "105327.914000",
          "105327.930000",
          "105327.930000",
          "105327.930000",
          "105327.930000",
          "105327.930000",
          "105327.945000",
          "105327.945000",
          "105327.945000",
          "105327.945000",
          "105327.945000",
          "105327.945000",
          "105327.961000",
          "105407.898000",
          "105407.898000",
          "105407.898000",
          "105407.914000",
          "105407.914000",
          "105407.914000",
          "105407.914000",
          "105407.914000",
          "105407.914000",
          "105407.914000",
          "105407.930000",
          "105407.930000",
          "105407.930000",
          "105407.930000",
          "105407.930000",
          "105407.930000",
          "105407.945000",
          "105407.945000",
          "105407.945000",
          "105407.945000",
          "105447.898000",
          "105447.898000",
          "105447.898000",
          "105447.898000",
          "105447.898000",
          "105447.914000",
          "105447.914000",
          "105447.914000",
          "105447.914000",
          "105447.914000",
          "105447.914000",
          "105447.930000",
          "105447.930000",
          "105447.930000",
          "105447.930000",
          "105447.930000",
          "105447.930000",
          "105447.930000",
          "105447.945000",
          "105447.945000",
          "105527.898000",
          "105527.898000",
          "105527.898000",
          "105527.914000",
          "105527.914000",
          "105527.914000",
          "105527.914000",
          "105527.914000",
          "105527.914000",
          "105527.914000",
          "105527.930000",
          "105527.930000",
          "105527.930000",
          "105527.930000",
          "105527.930000",
          "105527.945000",
          "105527.945000",
          "105527.945000",
          "105527.945000",
          "105527.945000",
          "105559.570000",
          "105559.586000",
          "105559.586000",
          "105559.586000",
          "105559.586000",
          "105559.586000",
          "105559.586000",
          "105559.601000",
          "105559.601000",
          "105559.601000",
          "105559.617000",
          "105559.617000",
          "105559.617000",
          "105559.633000",
          "105559.633000",
          "105559.633000"
        ],
        "InstanceCreationTime": [
          "105127.898000",
          "105127.914000",
          "105127.914000",
          "105127.914000",
          "105127.914000",
          "105127.914000",
          "105127.914000",
          "105127.930000",
          "105127.930000",
          "105127.930000",
          "105127.930000",
          "105127.930000",
          "105127.930000",
          "105127.930000",
          "105127.945000",
          "105127.945000",
          "105127.945000",
          "105127.945000",
          "105127.945000",
          "105127.961000",
          "105127.961000",
          "105127.961000",
          "105127.961000",
          "105127.961000",
          "105127.976000",
          "105127.976000",
          "105127.976000",
          "105127.976000",
          "105207.898000",
          "105207.898000",
          "105207.898000",
          "105207.898000",
          "105207.914000",
          "105207.914000",
          "105207.914000",
          "105207.914000",
          "105207.914000",
          "105207.914000",
          "105207.914000",
          "105207.930000",
          "105207.930000",
          "105207.930000",
          "105207.930000",
          "105207.930000",
          "105207.945000",
          "105207.945000",
          "105207.945000",
          "105207.945000",
          "105247.898000",
          "105247.898000",
          "105247.898000",
          "105247.898000",
          "105247.898000",
          "105247.914000",
          "105247.914000",
          "105247.914000",
          "105247.930000",
          "105247.930000",
          "105247.930000",
          "105247.945000",
          "105247.945000",
          "105247.945000",
          "105247.945000",
          "105247.945000",
          "105247.945000",
          "105247.945000",
          "105247.961000",
          "105247.961000",
          "105327.898000",
          "105327.898000",
          "105327.914000",
          "105327.914000",
          "105327.914000",
          "105327.914000",
          "105327.914000",
          "105327.914000",
          "105327.930000",
          "105327.930000",
          "105327.930000",
          "105327.930000",
          "105327.930000",
          "105327.945000",
          "105327.945000",
          "105327.945000",
          "105327.945000",
          "105327.945000",
          "105327.945000",
          "105327.961000",
          "105407.898000",
          "105407.898000",
          "105407.898000",
          "105407.914000",
          "105407.914000",
          "105407.914000",
          "105407.914000",
          "105407.914000",
          "105407.914000",
          "105407.914000",
          "105407.930000",
          "105407.930000",
          "105407.930000",
          "105407.930000",
          "105407.930000",
          "105407.930000",
          "105407.945000",
          "105407.945000",
          "105407.945000",
          "105407.945000",
          "105447.898000",
          "105447.898000",
          "105447.898000",
          "105447.898000",
          "105447.898000",
          "105447.914000",
          "105447.914000",
          "105447.914000",
          "105447.914000",
          "105447.914000",
          "105447.914000",
          "105447.930000",
          "105447.930000",
          "105447.930000",
          "105447.930000",
          "105447.930000",
          "105447.930000",
          "105447.930000",
          "105447.945000",
          "105447.945000",
          "105527.898000",
          "105527.898000",
          "105527.898000",
          "105527.914000",
          "105527.914000",
          "105527.914000",
          "105527.914000",
          "105527.914000",
          "105527.914000",
          "105527.914000",
          "105527.930000",
          "105527.930000",
          "105527.930000",
          "105527.930000",
          "105527.930000",
          "105527.945000",
          "105527.945000",
          "105527.945000",
          "105527.945000",
          "105527.945000",
          "105559.570000",
          "105559.586000",
          "105559.586000",
          "105559.586000",
          "105559.586000",
          "105559.586000",
          "105559.586000",
          "105559.601000",
          "105559.601000",
          "105559.601000",
          "105559.617000",
          "105559.617000",
          "105559.617000",
          "105559.633000",
          "105559.633000",
          "105559.633000"
        ],
        "InstanceNumber": [
          1,
          2,
          3,
          4,
          5,
          6,
          7,
          8,
          9,
          10,
          11,
          12,
          13,
          14,
          15,
          16,
          17,
          18,
          19,
          20,
          21,
          22,
          23,
          24,
          25,
          26,
          27,
          28,
          29,
          30,
          31,
          32,
          33,
          34,
          35,
          36,
          37,
          38,
          39,
          40,
          41,
          42,
          43,
          44,
          45,
          46,
          47,
          48,
          49,
          50,
          51,
          52,
          53,
          54,
          55,
          56,
          57,
          58,
          59,
          60,
          61,
          62,
          63,
          64,
          65,
          66,
          67,
          68,
          69,
          70,
          71,
          72,
          73,
          74,
          75,
          76,
          77,
          78,
          79,
          80,
          81,
          82,
          83,
          84,
          85,
          86,
          87,
          88,
          89,
          90,
          91,
          92,
          93,
          94,
          95,
          96,
          97,
          98,
          99,
          100,
          101,
          102,
          103,
          104,
          105,
          106,
          107,
          108,
          109,
          110,
          111,
          112,
          113,
          114,
          115,
          116,
          117,
          118,
          119,
          120,
          121,
          122,
          123,
          124,
          125,
          126,
          127,
          128,
          129,
          130,
          131,
          132,
          133,
          134,
          135,
          136,
          137,
          138,
          139,
          140,
          141,
          142,
          143,
          144,
          145,
          146,
          147,
          148,
          149,
          150,
          151,
          152,
          153,
          154,
          155,
          156,
          157,
          158,
          159,
          160,
          161,
          162,
          163,
          164
        ],
        "WindowCenter": [
          964.0,
          964.0,
          964.0,
          963.0,
          964.0,
          963.0,
          963.0,
          965.0,
          964.0,
          963.0,
          963.0,
          963.0,
          963.0,
          964.0,
          963.0,
          962.0,
          963.0,
          964.0,
          964.0,
          963.0,
          964.0,
          964.0,
          965.0,
          965.0,
          964.0,
          964.0,
          963.0,
          963.0,
          965.0,
          964.0,
          965.0,
          964.0,
          963.0,
          962.0,
          962.0,
          963.0,
          962.0,
          962.0,
          962.0,
          963.0,
          963.0,
          962.0,
          962.0,
          961.0,
          962.0,
          962.0,
          963.0,
          963.0,
          964.0,
          963.0,
          963.0,
          962.0,
          963.0,
          964.0,
          965.0,
          964.0,
          964.0,
          964.0,
          964.0,
          964.0,
          964.0,
          963.0,
          964.0,
          964.0,
          964.0,
          963.0,
          963.0,
          963.0,
          963.0,
          963.0,
          963.0,
          962.0,
          963.0,
          963.0,
          962.0,
          962.0,
          962.0,
          962.0,
          963.0,
          963.0,
          963.0,
          964.0,
          963.0,
          963.0,
          963.0,
          964.0,
          964.0,
          964.0,
          964.0,
          965.0,
          964.0,
          963.0,
          964.0,
          962.0,
          963.0,
          963.0,
          962.0,
          962.0,
          962.0,
          962.0,
          963.0,
          964.0,
          962.0,
          962.0,
          962.0,
          962.0,
          963.0,
          963.0,
          963.0,
          963.0,
          963.0,
          963.0,
          964.0,
          963.0,
          964.0,
          963.0,
          963.0,
          964.0,
          963.0,
          963.0,
          964.0,
          964.0,
          964.0,
          964.0,
          964.0,
          964.0,
          965.0,
          963.0,
          962.0,
          962.0,
          962.0,
          962.0,
          963.0,
          963.0,
          963.0,
          964.0,
          963.0,
          964.0,
          964.0,
          963.0,
          963.0,
          964.0,
          964.0,
          965.0,
          964.0,
          963.0,
          965.0,
          964.0,
          964.0,
          964.0,
          964.0,
          964.0,
          964.0,
          964.0,
          965.0,
          965.0,
          965.0,
          965.0,
          966.0,
          966.0,
          965.0,
          964.0,
          963.0,
          963.0
        ],
        "WindowWidth": [
          2618.0,
          2617.0,
          2620.0,
          2623.0,
          2621.0,
          2622.0,
          2624.0,
          2629.0,
          2628.0,
          2621.0,
          2619.0,
          2624.0,
          2625.0,
          2622.0,
          2620.0,
          2618.0,
          2620.0,
          2621.0,
          2618.0,
          2617.0,
          2618.0,
          2621.0,
          2623.0,
          2620.0,
          2617.0,
          2615.0,
          2614.0,
          2614.0,
          2615.0,
          2618.0,
          2619.0,
          2619.0,
          2616.0,
          2612.0,
          2611.0,
          2613.0,
          2617.0,
          2618.0,
          2618.0,
          2622.0,
          2622.0,
          2618.0,
          2615.0,
          2618.0,
          2620.0,
          2619.0,
          2617.0,
          2621.0,
          2619.0,
          2613.0,
          2608.0,
          2611.0,
          2618.0,
          2622.0,
          2619.0,
          2615.0,
          2616.0,
          2619.0,
          2621.0,
          2620.0,
          2616.0,
          2616.0,
          2618.0,
          2618.0,
          2618.0,
          2623.0,
          2621.0,
          2617.0,
          2623.0,
          2626.0,
          2618.0,
          2614.0,
          2615.0,
          2617.0,
          2614.0,
          2614.0,
          2612.0,
          2609.0,
          2606.0,
          2607.0,
          2611.0,
          2614.0,
          2613.0,
          2610.0,
          2616.0,
          2619.0,
          2619.0,
          2624.0,
          2626.0,
          2626.0,
          2620.0,
