{
  "aor": 0.0012800609756097561,
  "aqi": 0.0058486146951219516,
  "bids_meta": {
    "AcquisitionMatrixPE": 96,
    "AcquisitionNumber": 1,
    "AcquisitionTime": "12:39:19.225000",
    "BandwidthPerPixelPhaseEncode": 52.083,
    "BaseResolution": 96,
    "BodyPartExamined": "HEAD",
    "ConversionSoftware": "dcm2niix",
    "ConversionSoftwareVersion": "v1.0.20180622 GCC6.3.0",
    "DerivedVendorReportedEchoSpacing": 0.000600004,
    "DeviceSerialNumber": "18926",
    "DwellTime": 2.6e-06,
    "EchoTime": 0.025,
    "EffectiveEchoSpacing": 0.000200001,
    "FlipAngle": 50,
    "ImageOrientationPatientDICOM": [
      0.999992,
      0.00067012,
      0.00404905,
      2.11009e-10,
      0.98658,
      -0.16328
    ],
    "ImageType": [
      "ORIGINAL",
      "PRIMARY",
      "M",
      "ND",
      "ECHO",
      "00",
      "MOSAIC"
    ],
    "InPlanePhaseEncodingDirectionDICOM": "ROW",
    "InstitutionName": "NIMH",
    "InstitutionalDepartmentName": "Department",
    "MRAcquisitionType": "2D",
    "MagneticFieldStrength": 6.98,
    "Manufacturer": "Siemens",
    "ManufacturersModelName": "Investigational_Device_7T",
    "Modality": "MR",
    "ParallelReductionFactorInPlane": 3,
    "PartialFourier": 1,
    "PatientPosition": "HFS",
    "PercentPhaseFOV": 100,
    "PhaseEncodingDirection": "i",
    "PhaseEncodingSteps": 94,
    "PhaseResolution": 1,
    "PixelBandwidth": 2003,
    "ProcedureStepDescription": "MRI_Procedure_Limited",
    "ProtocolName": "NIH_EPI_2.0iso_TR2_Run05",
    "PulseSequenceDetails": "%CustomerSeq%_inati_nih_epi",
    "ReceiveCoilName": "32Ch_Head_7T",
    "ReconMatrixPE": 96,
    "RepetitionTime": 2,
    "SAR": 0.0812638,
    "ScanningSequence": "EP",
    "SequenceName": "epfid2d1_96",
    "SequenceVariant": "SK",
    "SeriesDescription": "NIH_EPI_2.0iso_TR2_Run05",
    "SeriesNumber": 9,
    "ShimSetting": [
      -115,
      322,
      1244,
      1955,
      -97,
      654,
      347,
      -236
    ],
    "SliceThickness": 2,
    "SliceTiming": [
      1.005,
      0,
      1.0425,
      0.0375,
      1.0775,
      0.075,
      1.115,
      0.1125,
      1.1525,
      0.15,
      1.19,
      0.1875,
      1.2275,
      0.2225,
      1.265,
      0.26,
      1.3025,
      0.2975,
      1.34,
      0.335,
      1.375,
      0.3725,
      1.4125,
      0.41,
      1.45,
      0.4475,
      1.4875,
      0.485,
      1.525,
      0.52,
      1.5625,
      0.5575,
      1.6,
      0.595,
      1.6375,
      0.6325,
      1.6725,
      0.67,
      1.71,
      0.7075,
      1.7475,
      0.745,
      1.785,
      0.78,
      1.8225,
      0.8175,
      1.86,
      0.855,
      1.8975,
      0.8925,
      1.935,
      0.93,
      1.97,
      0.9675
    ],
    "SoftwareVersions": "syngo_MR_B17",
    "SpacingBetweenSlices": 2,
    "StationName": "FMRIFD7T",
    "TaskName": "FullFovNoAttentionTask",
    "TotalReadoutTime": 0.0190001,
    "TxRefAmp": 287,
    "dataset": "ds001555",
    "dcmmeta_affine": [
      [
        -1.9999831914901733,
        4.2201880878778297e-10,
        0.008208253420889378,
        95.76705169677734
      ],
      [
        -0.0013402394251897931,
        1.973159670829773,
        -0.32655632495880127,
        -62.44346618652344
      ],
      [
        0.008098097518086433,
        0.32655906677246094,
        1.9731431007385254,
        -46.29322052001953
      ],
      [
        0.0,
        0.0,
        0.0,
        1.0
      ]
    ],
    "dcmmeta_reorient_transform": [
      [
        0.0,
        -1.0,
        0.0,
        95.0
      ],
      [
        1.0,
        0.0,
        0.0,
        0.0
      ],
      [
        0.0,
        0.0,
        1.0,
        0.0
      ],
      [
        0.0,
        0.0,
        0.0,
        1.0
      ]
    ],
    "dcmmeta_shape": [
      96,
      96,
      54,
      164
    ],
    "dcmmeta_slice_dim": 2,
    "dcmmeta_version": 0.6,
    "global": {
      "const": {
        "AcquisitionMatrix": [
          0,
          96,
          96,
          0
        ],
        "Allergies": "No Known Allergies",
        "AngioFlag": "N",
        "BitsAllocated": 16,
        "BitsStored": 12,
        "BodyPartExamined": "HEAD",
        "Columns": 768,
        "EchoNumbers": 1,
        "EchoTime": 25.0,
        "EchoTrainLength": 1,
        "FlipAngle": 50.0,
        "HighBit": 11,
        "ImageOrientationPatient": [
          0.99999157803662,
          0.00067011969073,
          0.00404904870684,
          2.110094e-10,
          0.98657984636313,
          -0.1632795356133
        ],
        "ImagePositionPatient": [
          -767.761392775,
          -788.43868109794,
          91.732777677076
        ],
        "ImageType": [
          "ORIGINAL",
          "PRIMARY",
          "M",
          "ND",
          "ECHO_00",
          "MOSAIC"
        ],
        "ImagedNucleus": "1H",
        "ImagingFrequency": 297.205047,
        "InPlanePhaseEncodingDirection": "ROW",
        "LargestImagePixelValue": 4095,
        "MRAcquisitionType": "2D",
        "MagneticFieldStrength": 6.98,
        "Manufacturer": "SIEMENS",
        "ManufacturerModelName": "Investigational_Device_7T",
        "Modality": "MR",
        "NumberOfAverages": 1.0,
        "NumberOfPhaseEncodingSteps": 94,
        "PercentPhaseFieldOfView": 100.0,
        "PercentSampling": 100.0,
        "PerformedProcedureStepStartTime": "115404.078000",
        "PhotometricInterpretation": "MONOCHROME2",
        "PixelBandwidth": 2003.0,
        "PixelRepresentation": 0,
        "PixelSpacing": [
          2.0,
          2.0
        ],
        "PositionReferenceIndicator": "",
        "ProcedureCodeSequence": [
          {
            "CodeMeaning": "MRI Procedure Limited",
            "CodeValue": "MI01491",
            "CodingSchemeDesignator": "USA Standard",
            "ContextIdentifier": "4000109576"
          }
        ],
        "ProtocolName": "NIH_EPI_2.0iso_TR2_Run05",
        "ReferencedStudySequence": [
          {
            "ReferencedSOPClassUID": "1.2.840.10008.3.1.2.3.1",
            "ReferencedSOPInstanceUID": "1.2.840.113564.9.1.2723958737.61.2.5000075338"
          }
        ],
        "RepetitionTime": 2000.0,
        "RequestedProcedureCodeSequence": [
          {
            "CodeMeaning": "MRI Procedure Limited",
            "CodeValue": "MI01491",
            "CodingSchemeDesignator": "USA Standard",
            "ContextIdentifier": "4000109576"
          }
        ],
        "RequestingService": "MHED",
        "Rows": 768,
        "SAR": 0.0812637748338,
        "SamplesPerPixel": 1,
        "ScanningSequence": "EP",
        "SequenceName": "epfid2d1_96",
        "SequenceVariant": "SK",
        "SeriesDescription": "NIH_EPI_2.0iso_TR2_Run05",
        "SeriesNumber": 9,
        "SliceLocation": -35.082879977569,
        "SliceThickness": 2.0,
        "SmallestImagePixelValue": 0,
        "SoftwareVersions": "syngo MR B17",
        "SpacingBetweenSlices": 2.0000000184226,
        "TransmitCoilName": "32Ch_Head_7T",
        "VariableFlipAngleFlag": "N",
        "WindowCenterWidthExplanation": "Algo1",
        "dBdt": 0.0
      },
      "slices": {}
    },
    "modality": "bold",
    "run_id": 6,
    "session_id": "05",
    "subject_id": "002",
    "task_id": "FullFovNoAttentionTask",
    "time": {
      "samples": {
        "AcquisitionNumber": [
          1,
          2,
          3,
          4,
          5,
          6,
          7,
          8,
          9,
          10,
          11,
          12,
          13,
          14,
          15,
          16,
          17,
          18,
          19,
          20,
          21,
          22,
          23,
          24,
          25,
          26,
          27,
          28,
          29,
          30,
          31,
          32,
          33,
          34,
          35,
          36,
          37,
          38,
          39,
          40,
          41,
          42,
          43,
          44,
          45,
          46,
          47,
          48,
          49,
          50,
          51,
          52,
          53,
          54,
          55,
          56,
          57,
          58,
          59,
          60,
          61,
          62,
          63,
          64,
          65,
          66,
          67,
          68,
          69,
          70,
          71,
          72,
          73,
          74,
          75,
          76,
          77,
          78,
          79,
          80,
          81,
          82,
          83,
          84,
          85,
          86,
          87,
          88,
          89,
          90,
          91,
          92,
          93,
          94,
          95,
          96,
          97,
          98,
          99,
          100,
          101,
          102,
          103,
          104,
          105,
          106,
          107,
          108,
          109,
          110,
          111,
          112,
          113,
          114,
          115,
          116,
          117,
          118,
          119,
          120,
          121,
          122,
          123,
          124,
          125,
          126,
          127,
          128,
          129,
          130,
          131,
          132,
          133,
          134,
          135,
          136,
          137,
          138,
          139,
          140,
          141,
          142,
          143,
          144,
          145,
          146,
          147,
          148,
          149,
          150,
          151,
          152,
          153,
          154,
          155,
          156,
          157,
          158,
          159,
          160,
          161,
          162,
          163,
          164
        ],
        "AcquisitionTime": [
          "123919.225000",
          "123923.240000",
          "123925.247500",
          "123927.257500",
          "123929.265000",
          "123931.272500",
          "123933.280000",
          "123935.287500",
          "123937.297500",
          "123939.305000",
          "123941.312500",
          "123943.320000",
          "123945.327500",
          "123947.337500",
          "123949.345000",
          "123951.352500",
          "123953.360000",
          "123955.370000",
          "123957.377500",
          "123959.385000",
          "124001.392500",
          "124003.400000",
          "124005.410000",
          "124007.417500",
          "124009.425000",
          "124011.432500",
          "124013.440000",
          "124015.450000",
          "124017.457500",
          "124019.465000",
          "124021.472500",
          "124023.482500",
          "124025.490000",
          "124027.497500",
          "124029.505000",
          "124031.512500",
          "124033.522500",
          "124035.530000",
          "124037.537500",
          "124039.545000",
          "124041.552500",
          "124043.562500",
          "124045.570000",
          "124047.577500",
          "124049.585000",
          "124051.595000",
          "124053.602500",
          "124055.610000",
          "124057.617500",
          "124059.625000",
          "124101.635000",
          "124103.642500",
          "124105.650000",
          "124107.657500",
          "124109.665000",
          "124111.675000",
          "124113.682500",
          "124115.690000",
          "124117.697500",
          "124119.705000",
          "124121.715000",
          "124123.722500",
          "124125.730000",
          "124127.737500",
          "124129.747500",
          "124131.755000",
          "124133.762500",
          "124135.770000",
          "124137.777500",
          "124139.787500",
          "124141.795000",
          "124143.802500",
          "124145.810000",
          "124147.817500",
          "124149.827500",
          "124151.835000",
          "124153.842500",
          "124155.850000",
          "124157.860000",
          "124159.867500",
          "124201.875000",
          "124203.882500",
          "124205.890000",
          "124207.900000",
          "124209.907500",
          "124211.915000",
          "124213.922500",
          "124215.930000",
          "124217.940000",
          "124219.947500",
          "124221.955000",
          "124223.962500",
          "124225.972500",
          "124227.980000",
          "124229.987500",
          "124231.995000",
          "124234.002500",
          "124236.012500",
          "124238.020000",
          "124240.027500",
          "124242.035000",
          "124244.042500",
          "124246.052500",
          "124248.060000",
          "124250.067500",
          "124252.075000",
          "124254.082500",
          "124256.092500",
          "124258.100000",
          "124300.107500",
          "124302.115000",
          "124304.125000",
          "124306.132500",
          "124308.140000",
          "124310.147500",
          "124312.155000",
          "124314.165000",
          "124316.172500",
          "124318.180000",
          "124320.187500",
          "124322.195000",
          "124324.205000",
          "124326.212500",
          "124328.220000",
          "124330.227500",
          "124332.237500",
          "124334.245000",
          "124336.252500",
          "124338.260000",
          "124340.267500",
          "124342.277500",
          "124344.285000",
          "124346.292500",
          "124348.300000",
          "124350.307500",
          "124352.317500",
          "124354.325000",
          "124356.332500",
          "124358.340000",
          "124400.350000",
          "124402.357500",
          "124404.365000",
          "124406.372500",
          "124408.380000",
          "124410.390000",
          "124412.397500",
          "124414.405000",
          "124416.412500",
          "124418.420000",
          "124420.430000",
          "124422.437500",
          "124424.445000",
          "124426.452500",
          "124428.462500",
          "124430.470000",
          "124432.477500",
          "124434.485000",
          "124436.492500",
          "124438.502500",
          "124440.510000",
          "124442.517500",
          "124444.525000",
          "124446.532500",
          "124448.542500"
        ],
        "ContentTime": [
          "124014.984000",
          "124015.000000",
          "124015.000000",
          "124015.000000",
          "124015.000000",
          "124015.000000",
          "124015.000000",
          "124015.015000",
          "124015.015000",
          "124015.015000",
          "124015.015000",
          "124015.015000",
          "124015.015000",
          "124015.031000",
          "124015.031000",
          "124015.031000",
          "124015.031000",
          "124015.031000",
          "124015.031000",
          "124015.031000",
          "124015.046000",
          "124015.046000",
          "124015.046000",
          "124015.046000",
          "124015.046000",
          "124015.046000",
          "124015.046000",
          "124054.984000",
          "124054.984000",
          "124054.984000",
          "124054.984000",
          "124054.984000",
          "124055.000000",
          "124055.000000",
          "124055.000000",
          "124055.000000",
          "124055.000000",
          "124055.000000",
          "124055.015000",
          "124055.015000",
          "124055.015000",
          "124055.015000",
          "124055.015000",
          "124055.015000",
          "124055.015000",
          "124055.031000",
          "124055.031000",
          "124134.984000",
          "124134.984000",
          "124134.984000",
          "124134.984000",
          "124135.000000",
          "124135.000000",
          "124135.000000",
          "124135.000000",
          "124135.000000",
          "124135.000000",
          "124135.015000",
          "124135.015000",
          "124135.015000",
          "124135.015000",
          "124135.031000",
          "124135.031000",
          "124135.031000",
          "124135.031000",
          "124135.031000",
          "124135.031000",
          "124214.984000",
          "124214.984000",
          "124214.984000",
          "124214.984000",
          "124214.984000",
          "124215.000000",
          "124215.000000",
          "124215.000000",
          "124215.000000",
          "124215.000000",
          "124215.000000",
          "124215.015000",
          "124215.015000",
          "124215.015000",
          "124215.015000",
          "124215.015000",
          "124215.015000",
          "124215.015000",
          "124215.031000",
          "124215.031000",
          "124254.984000",
          "124254.984000",
          "124254.984000",
          "124254.984000",
          "124254.984000",
          "124255.000000",
          "124255.000000",
          "124255.000000",
          "124255.000000",
          "124255.000000",
          "124255.000000",
          "124255.000000",
          "124255.015000",
          "124255.015000",
          "124255.015000",
          "124255.015000",
          "124255.015000",
          "124255.015000",
          "124255.031000",
          "124255.031000",
          "124334.984000",
          "124334.984000",
          "124334.984000",
          "124334.984000",
          "124334.984000",
          "124335.000000",
          "124335.000000",
          "124335.000000",
          "124335.000000",
          "124335.000000",
          "124335.000000",
          "124335.000000",
          "124335.015000",
          "124335.015000",
          "124335.015000",
          "124335.031000",
          "124335.031000",
          "124335.031000",
          "124335.031000",
          "124335.031000",
          "124414.984000",
          "124414.984000",
          "124414.984000",
          "124414.984000",
          "124414.984000",
          "124415.000000",
          "124415.000000",
          "124415.000000",
          "124415.015000",
          "124415.015000",
          "124415.015000",
          "124415.015000",
          "124415.015000",
          "124415.015000",
          "124415.015000",
          "124415.031000",
          "124415.031000",
          "124415.031000",
          "124415.031000",
          "124415.031000",
          "124434.984000",
          "124434.984000",
          "124434.984000",
          "124434.984000",
          "124434.984000",
          "124435.000000",
          "124435.000000",
          "124435.000000",
          "124435.000000",
          "124435.000000",
          "124448.343000",
          "124448.343000",
          "124448.343000",
          "124448.359000",
          "124448.359000",
          "124448.359000",
          "124448.359000"
        ],
        "InstanceCreationTime": [
          "124014.984000",
          "124015.000000",
          "124015.000000",
          "124015.000000",
          "124015.000000",
          "124015.000000",
          "124015.000000",
          "124015.015000",
          "124015.015000",
          "124015.015000",
          "124015.015000",
          "124015.015000",
          "124015.015000",
          "124015.031000",
          "124015.031000",
          "124015.031000",
          "124015.031000",
          "124015.031000",
          "124015.031000",
          "124015.031000",
          "124015.046000",
          "124015.046000",
          "124015.046000",
          "124015.046000",
          "124015.046000",
          "124015.046000",
          "124015.046000",
          "124054.984000",
          "124054.984000",
          "124054.984000",
          "124054.984000",
          "124054.984000",
          "124055.000000",
          "124055.000000",
          "124055.000000",
          "124055.000000",
          "124055.000000",
          "124055.000000",
          "124055.015000",
          "124055.015000",
          "124055.015000",
          "124055.015000",
          "124055.015000",
          "124055.015000",
          "124055.015000",
          "124055.031000",
          "124055.031000",
          "124134.984000",
          "124134.984000",
          "124134.984000",
          "124134.984000",
          "124135.000000",
          "124135.000000",
          "124135.000000",
          "124135.000000",
          "124135.000000",
          "124135.000000",
          "124135.015000",
          "124135.015000",
          "124135.015000",
          "124135.015000",
          "124135.031000",
          "124135.031000",
          "124135.031000",
          "124135.031000",
          "124135.031000",
          "124135.031000",
          "124214.984000",
          "124214.984000",
          "124214.984000",
          "124214.984000",
          "124214.984000",
          "124215.000000",
          "124215.000000",
          "124215.000000",
          "124215.000000",
          "124215.000000",
          "124215.000000",
          "124215.015000",
          "124215.015000",
          "124215.015000",
          "124215.015000",
          "124215.015000",
          "124215.015000",
          "124215.015000",
          "124215.031000",
          "124215.031000",
          "124254.984000",
          "124254.984000",
          "124254.984000",
          "124254.984000",
          "124254.984000",
          "124255.000000",
          "124255.000000",
          "124255.000000",
          "124255.000000",
          "124255.000000",
          "124255.000000",
          "124255.000000",
          "124255.015000",
          "124255.015000",
          "124255.015000",
          "124255.015000",
          "124255.015000",
          "124255.015000",
          "124255.031000",
          "124255.031000",
          "124334.984000",
          "124334.984000",
          "124334.984000",
          "124334.984000",
          "124334.984000",
          "124335.000000",
          "124335.000000",
          "124335.000000",
          "124335.000000",
          "124335.000000",
          "124335.000000",
          "124335.000000",
          "124335.015000",
          "124335.015000",
          "124335.015000",
          "124335.031000",
          "124335.031000",
          "124335.031000",
          "124335.031000",
          "124335.031000",
          "124414.984000",
          "124414.984000",
          "124414.984000",
          "124414.984000",
          "124414.984000",
          "124415.000000",
          "124415.000000",
          "124415.000000",
          "124415.015000",
          "124415.015000",
          "124415.015000",
          "124415.015000",
          "124415.015000",
          "124415.015000",
          "124415.015000",
          "124415.031000",
          "124415.031000",
          "124415.031000",
          "124415.031000",
          "124415.031000",
          "124434.984000",
          "124434.984000",
          "124434.984000",
          "124434.984000",
          "124434.984000",
          "124435.000000",
          "124435.000000",
          "124435.000000",
          "124435.000000",
          "124435.000000",
          "124448.343000",
          "124448.343000",
          "124448.343000",
          "124448.359000",
          "124448.359000",
          "124448.359000",
          "124448.359000"
        ],
        "InstanceNumber": [
          1,
          2,
          3,
          4,
          5,
          6,
          7,
          8,
          9,
          10,
          11,
          12,
          13,
          14,
          15,
          16,
          17,
          18,
          19,
          20,
          21,
          22,
          23,
          24,
          25,
          26,
          27,
          28,
          29,
          30,
          31,
          32,
          33,
          34,
          35,
          36,
          37,
          38,
          39,
          40,
          41,
          42,
          43,
          44,
          45,
          46,
          47,
          48,
          49,
          50,
          51,
          52,
          53,
          54,
          55,
          56,
          57,
          58,
          59,
          60,
          61,
          62,
          63,
          64,
          65,
          66,
          67,
          68,
          69,
          70,
          71,
          72,
          73,
          74,
          75,
          76,
          77,
          78,
          79,
          80,
          81,
          82,
          83,
          84,
          85,
          86,
          87,
          88,
          89,
          90,
          91,
          92,
          93,
          94,
          95,
          96,
          97,
          98,
          99,
          100,
          101,
          102,
          103,
          104,
          105,
          106,
          107,
          108,
          109,
          110,
          111,
          112,
          113,
          114,
          115,
          116,
          117,
          118,
          119,
          120,
          121,
          122,
          123,
          124,
          125,
          126,
          127,
          128,
          129,
          130,
          131,
          132,
          133,
          134,
          135,
          136,
          137,
          138,
          139,
          140,
          141,
          142,
          143,
          144,
          145,
          146,
          147,
          148,
          149,
          150,
          151,
          152,
          153,
          154,
          155,
          156,
          157,
          158,
          159,
          160,
          161,
          162,
          163,
          164
        ],
        "WindowCenter": [
          1046.0,
          1046.0,
          1049.0,
          1046.0,
          1045.0,
          1047.0,
          1046.0,
          1045.0,
          1045.0,
          1047.0,
          1045.0,
          1045.0,
          1046.0,
          1044.0,
          1046.0,
          1050.0,
          1045.0,
          1046.0,
          1047.0,
          1049.0,
          1048.0,
          1048.0,
          1047.0,
          1047.0,
          1047.0,
          1049.0,
          1047.0,
          1045.0,
          1043.0,
          1042.0,
          1043.0,
          1044.0,
          1044.0,
          1044.0,
          1045.0,
          1045.0,
          1045.0,
          1048.0,
          1047.0,
          1047.0,
          1048.0,
          1048.0,
          1048.0,
          1047.0,
          1049.0,
          1051.0,
          1050.0,
          1047.0,
          1046.0,
          1046.0,
          1044.0,
          1044.0,
          1045.0,
          1045.0,
          1046.0,
          1045.0,
          1045.0,
          1046.0,
          1047.0,
          1046.0,
          1048.0,
          1046.0,
          1045.0,
          1049.0,
          1048.0,
          1047.0,
          1047.0,
          1047.0,
          1047.0,
          1046.0,
          1046.0,
          1047.0,
          1047.0,
          1048.0,
          1049.0,
          1046.0,
          1047.0,
          1049.0,
          1049.0,
          1050.0,
          1049.0,
          1049.0,
          1050.0,
          1049.0,
          1049.0,
          1049.0,
          1049.0,
          1051.0,
          1049.0,
          1048.0,
          1050.0,
          1050.0,
          1048.0,
          1049.0,
          1047.0,
          1047.0,
          1049.0,
          1049.0,
          1049.0,
          1047.0,
          1048.0,
          1050.0,
          1049.0,
          1049.0,
          1050.0,
          1048.0,
          1048.0,
          1052.0,
          1049.0,
          1048.0,
          1048.0,
          1046.0,
          1046.0,
          1049.0,
          1047.0,
          1049.0,
          1048.0,
          1049.0,
          1049.0,
          1049.0,
          1050.0,
          1048.0,
          1046.0,
          1046.0,
          1048.0,
          1046.0,
          1048.0,
          1050.0,
          1049.0,
          1047.0,
          1047.0,
          1047.0,
          1049.0,
          1049.0,
          1048.0,
          1049.0,
          1048.0,
          1047.0,
          1050.0,
          1049.0,
          1049.0,
          1049.0,
          1048.0,
          1051.0,
          1048.0,
          1044.0,
          1044.0,
          1045.0,
          1048.0,
          1048.0,
          1047.0,
          1047.0,
          1048.0,
          1049.0,
          1049.0,
          1049.0,
          1047.0,
          1048.0,
          1048.0,
          1047.0,
          1049.0,
          1051.0,
          1051.0,
          1050.0
        ],
        "WindowWidth": [
          2790.0,
          2793.0,
          2802.0,
          2792.0,
          2787.0,
          2796.0,
          2786.0,
          2780.0,
          2794.0,
          2794.0,
          2790.0,
          2792.0,
          2793.0,
          2784.0,
          2798.0,
          2796.0,
          2787.0,
          2788.0,
          2792.0,
          2801.0,
          2800.0,
          2795.0,
          2795.0,
          2791.0,
          2803.0,
          2809.0,
          2798.0,
          2792.0,
          2785.0,
          2775.0,
          2784.0,
          2790.0,
          2788.0,
          2786.0,
          2795.0,
          2788.0,
          2792.0,
          2798.0,
          2796.0,
          2797.0,
          2798.0,
          2802.0,
          2802.0,
          2798.0,
          2812.0,
          2809.0,
          2804.0,
          2791.0,
          2793.0,
          2791.0,
          2785.0,
          2791.0,
          2795.0,
          2784.0,
          2794.0,
          2787.0,
          2786.0,
          2795.0,
          2796.0,
          2793.0,
          2798.0,
          2793.0,
          2789.0,
          2802.0,
          2799.0,
          2796.0,
          2799.0,
          2797.0,
          2796.0,
          2790.0,
          2790.0,
          2801.0,
          2803.0,
          2805.0,
          2800.0,
          2793.0,
          2794.0,
          2803.0,
          2798.0,
          2803.0,
          2799.0,
          2803.0,
