{
  "aor": 0.003955609756097561,
  "aqi": 0.008006667012195122,
  "bids_meta": {
    "AcquisitionMatrixPE": 96,
    "AcquisitionNumber": 1,
    "AcquisitionTime": "18:25:11.567500",
    "BandwidthPerPixelPhaseEncode": 52.083,
    "BaseResolution": 96,
    "BodyPartExamined": "HEAD",
    "ConversionSoftware": "dcm2niix",
    "ConversionSoftwareVersion": "v1.0.20180622 GCC6.3.0",
    "DerivedVendorReportedEchoSpacing": 0.000600004,
    "DeviceSerialNumber": "18926",
    "DwellTime": 2.6e-06,
    "EchoTime": 0.025,
    "EffectiveEchoSpacing": 0.000200001,
    "FlipAngle": 50,
    "ImageOrientationPatientDICOM": [
      0.999992,
      0.00067012,
      0.00404905,
      2.11009e-10,
      0.98658,
      -0.16328
    ],
    "ImageType": [
      "ORIGINAL",
      "PRIMARY",
      "M",
      "ND",
      "ECHO",
      "00",
      "MOSAIC"
    ],
    "InPlanePhaseEncodingDirectionDICOM": "ROW",
    "InstitutionName": "NIMH",
    "InstitutionalDepartmentName": "Department",
    "MRAcquisitionType": "2D",
    "MagneticFieldStrength": 6.98,
    "Manufacturer": "Siemens",
    "ManufacturersModelName": "Investigational_Device_7T",
    "Modality": "MR",
    "ParallelReductionFactorInPlane": 3,
    "PartialFourier": 1,
    "PatientPosition": "HFS",
    "PercentPhaseFOV": 100,
    "PhaseEncodingDirection": "i",
    "PhaseEncodingSteps": 94,
    "PhaseResolution": 1,
    "PixelBandwidth": 2003,
    "ProcedureStepDescription": "UserProtocols_gonzalez",
    "ProtocolName": "NIH_EPI_2.0iso_TR2_Run01",
    "PulseSequenceDetails": "%CustomerSeq%_inati_nih_epi",
    "ReceiveCoilName": "32Ch_Head_7T",
    "ReconMatrixPE": 96,
    "RepetitionTime": 2,
    "SAR": 0.0762284,
    "ScanningSequence": "EP",
    "SequenceName": "epfid2d1_96",
    "SequenceVariant": "SK",
    "SeriesDescription": "NIH_EPI_2.0iso_TR2_Run01",
    "SeriesNumber": 5,
    "ShimSetting": [
      -50,
      191,
      798,
      1012,
      28,
      665,
      75,
      -332
    ],
    "SliceThickness": 2,
    "SliceTiming": [
      1.0025,
      0,
      1.04,
      0.035,
      1.0775,
      0.0725,
      1.115,
      0.11,
      1.1525,
      0.1475,
      1.1875,
      0.185,
      1.225,
      0.2225,
      1.2625,
      0.26,
      1.3,
      0.2975,
      1.3375,
      0.3325,
      1.375,
      0.37,
      1.4125,
      0.4075,
      1.45,
      0.445,
      1.485,
      0.4825,
      1.5225,
      0.52,
      1.56,
      0.5575,
      1.5975,
      0.595,
      1.635,
      0.63,
      1.6725,
      0.6675,
      1.71,
      0.705,
      1.7475,
      0.7425,
      1.7825,
      0.78,
      1.82,
      0.8175,
      1.8575,
      0.855,
      1.895,
      0.89,
      1.9325,
      0.9275,
      1.97,
      0.965
    ],
    "SoftwareVersions": "syngo_MR_B17",
    "SpacingBetweenSlices": 2,
    "StationName": "FMRIFD7T",
    "TaskName": "HalfFovNoTask",
    "TotalReadoutTime": 0.0190001,
    "TxRefAmp": 315,
    "dataset": "ds001555",
    "dcmmeta_affine": [
      [
        -1.9999831914901733,
        4.2201880878778297e-10,
        0.008208253420889378,
        95.76705169677734
      ],
      [
        -0.0013402394251897931,
        1.973159670829773,
        -0.32655632495880127,
        -58.3952751159668
      ],
      [
        0.008098097518086433,
        0.32655906677246094,
        1.9731431007385254,
        -41.57032775878906
      ],
      [
        0.0,
        0.0,
        0.0,
        1.0
      ]
    ],
    "dcmmeta_reorient_transform": [
      [
        0.0,
        -1.0,
        0.0,
        95.0
      ],
      [
        1.0,
        0.0,
        0.0,
        0.0
      ],
      [
        0.0,
        0.0,
        1.0,
        0.0
      ],
      [
        0.0,
        0.0,
        0.0,
        1.0
      ]
    ],
    "dcmmeta_shape": [
      96,
      96,
      54,
      164
    ],
    "dcmmeta_slice_dim": 2,
    "dcmmeta_version": 0.6,
    "global": {
      "const": {
        "AcquisitionMatrix": [
          0,
          96,
          96,
          0
        ],
        "AngioFlag": "N",
        "BitsAllocated": 16,
        "BitsStored": 12,
        "BodyPartExamined": "HEAD",
        "Columns": 768,
        "EchoNumbers": 1,
        "EchoTime": 25.0,
        "EchoTrainLength": 1,
        "FlipAngle": 50.0,
        "HighBit": 11,
        "ImageOrientationPatient": [
          0.99999157803662,
          0.00067011969073,
          0.00404904870684,
          2.110094e-10,
          0.98657984636313,
          -0.1632795356133
        ],
        "ImagePositionPatient": [
          -767.761392775,
          -792.48687407585,
          96.455670438306
        ],
        "ImageType": [
          "ORIGINAL",
          "PRIMARY",
          "M",
          "ND",
          "ECHO_00",
          "MOSAIC"
        ],
        "ImagedNucleus": "1H",
        "ImagingFrequency": 297.204942,
        "InPlanePhaseEncodingDirection": "ROW",
        "LargestImagePixelValue": 4095,
        "MRAcquisitionType": "2D",
        "MagneticFieldStrength": 6.98,
        "Manufacturer": "SIEMENS",
        "ManufacturerModelName": "Investigational_Device_7T",
        "Modality": "MR",
        "NumberOfAverages": 1.0,
        "NumberOfPhaseEncodingSteps": 94,
        "PercentPhaseFieldOfView": 100.0,
        "PercentSampling": 100.0,
        "PerformedProcedureStepStartTime": "180252.597000",
        "PhotometricInterpretation": "MONOCHROME2",
        "PixelBandwidth": 2003.0,
        "PixelRepresentation": 0,
        "PixelSpacing": [
          2.0,
          2.0
        ],
        "PositionReferenceIndicator": "",
        "ProtocolName": "NIH_EPI_2.0iso_TR2_Run01",
        "RepetitionTime": 2000.0,
        "Rows": 768,
        "SAR": 0.07622842811543,
        "SamplesPerPixel": 1,
        "ScanningSequence": "EP",
        "SequenceName": "epfid2d1_96",
        "SequenceVariant": "SK",
        "SeriesDescription": "NIH_EPI_2.0iso_TR2_Run01",
        "SeriesNumber": 5,
        "SliceLocation": -31.084389907735,
        "SliceThickness": 2.0,
        "SmallestImagePixelValue": 0,
        "SoftwareVersions": "syngo MR B17",
        "SpacingBetweenSlices": 2.0000000184226,
        "TransmitCoilName": "32Ch_Head_7T",
        "VariableFlipAngleFlag": "N",
        "WindowCenterWidthExplanation": "Algo1",
        "dBdt": 0.0
      },
      "slices": {}
    },
    "modality": "bold",
    "run_id": 2,
    "session_id": "02",
    "subject_id": "001",
    "task_id": "HalfFovNoTask",
    "time": {
      "samples": {
        "AcquisitionNumber": [
          1,
          2,
          3,
          4,
          5,
          6,
          7,
          8,
          9,
          10,
          11,
          12,
          13,
          14,
          15,
          16,
          17,
          18,
          19,
          20,
          21,
          22,
          23,
          24,
          25,
          26,
          27,
          28,
          29,
          30,
          31,
          32,
          33,
          34,
          35,
          36,
          37,
          38,
          39,
          40,
          41,
          42,
          43,
          44,
          45,
          46,
          47,
          48,
          49,
          50,
          51,
          52,
          53,
          54,
          55,
          56,
          57,
          58,
          59,
          60,
          61,
          62,
          63,
          64,
          65,
          66,
          67,
          68,
          69,
          70,
          71,
          72,
          73,
          74,
          75,
          76,
          77,
          78,
          79,
          80,
          81,
          82,
          83,
          84,
          85,
          86,
          87,
          88,
          89,
          90,
          91,
          92,
          93,
          94,
          95,
          96,
          97,
          98,
          99,
          100,
          101,
          102,
          103,
          104,
          105,
          106,
          107,
          108,
          109,
          110,
          111,
          112,
          113,
          114,
          115,
          116,
          117,
          118,
          119,
          120,
          121,
          122,
          123,
          124,
          125,
          126,
          127,
          128,
          129,
          130,
          131,
          132,
          133,
          134,
          135,
          136,
          137,
          138,
          139,
          140,
          141,
          142,
          143,
          144,
          145,
          146,
          147,
          148,
          149,
          150,
          151,
          152,
          153,
          154,
          155,
          156,
          157,
          158,
          159,
          160,
          161,
          162,
          163,
          164
        ],
        "AcquisitionTime": [
          "182511.567500",
          "182515.585000",
          "182517.592500",
          "182519.600000",
          "182521.607500",
          "182523.615000",
          "182525.625000",
          "182527.632500",
          "182529.640000",
          "182531.647500",
          "182533.655000",
          "182535.665000",
          "182537.672500",
          "182539.680000",
          "182541.687500",
          "182543.697500",
          "182545.705000",
          "182547.712500",
          "182549.720000",
          "182551.727500",
          "182553.737500",
          "182555.745000",
          "182557.752500",
          "182559.760000",
          "182601.767500",
          "182603.777500",
          "182605.785000",
          "182607.792500",
          "182609.800000",
          "182611.807500",
          "182613.817500",
          "182615.825000",
          "182617.832500",
          "182619.840000",
          "182621.850000",
          "182623.857500",
          "182625.865000",
          "182627.872500",
          "182629.880000",
          "182631.890000",
          "182633.897500",
          "182635.905000",
          "182637.912500",
          "182639.920000",
          "182641.930000",
          "182643.937500",
          "182645.945000",
          "182647.952500",
          "182649.962500",
          "182651.970000",
          "182653.977500",
          "182655.985000",
          "182657.992500",
          "182700.002500",
          "182702.010000",
          "182704.017500",
          "182706.025000",
          "182708.032500",
          "182710.042500",
          "182712.050000",
          "182714.057500",
          "182716.065000",
          "182718.075000",
          "182720.082500",
          "182722.090000",
          "182724.097500",
          "182726.105000",
          "182728.115000",
          "182730.122500",
          "182732.130000",
          "182734.137500",
          "182736.145000",
          "182738.155000",
          "182740.162500",
          "182742.170000",
          "182744.177500",
          "182746.187500",
          "182748.195000",
          "182750.202500",
          "182752.210000",
          "182754.217500",
          "182756.227500",
          "182758.235000",
          "182800.242500",
          "182802.250000",
          "182804.257500",
          "182806.267500",
          "182808.275000",
          "182810.282500",
          "182812.290000",
          "182814.297500",
          "182816.307500",
          "182818.315000",
          "182820.322500",
          "182822.330000",
          "182824.340000",
          "182826.347500",
          "182828.355000",
          "182830.362500",
          "182832.370000",
          "182834.380000",
          "182836.387500",
          "182838.395000",
          "182840.402500",
          "182842.410000",
          "182844.420000",
          "182846.427500",
          "182848.435000",
          "182850.442500",
          "182852.452500",
          "182854.460000",
          "182856.467500",
          "182858.475000",
          "182900.482500",
          "182902.492500",
          "182904.500000",
          "182906.507500",
          "182908.515000",
          "182910.522500",
          "182912.532500",
          "182914.540000",
          "182916.547500",
          "182918.555000",
          "182920.565000",
          "182922.572500",
          "182924.580000",
          "182926.587500",
          "182928.595000",
          "182930.605000",
          "182932.612500",
          "182934.620000",
          "182936.627500",
          "182938.635000",
          "182940.645000",
          "182942.652500",
          "182944.660000",
          "182946.667500",
          "182948.675000",
          "182950.685000",
          "182952.692500",
          "182954.700000",
          "182956.707500",
          "182958.717500",
          "183000.725000",
          "183002.732500",
          "183004.740000",
          "183006.747500",
          "183008.757500",
          "183010.765000",
          "183012.772500",
          "183014.780000",
          "183016.787500",
          "183018.797500",
          "183020.805000",
          "183022.812500",
          "183024.820000",
          "183026.830000",
          "183028.837500",
          "183030.845000",
          "183032.852500",
          "183034.860000",
          "183036.870000",
          "183038.877500",
          "183040.885000"
        ],
        "ContentTime": [
          "182611.722000",
          "182611.722000",
          "182611.722000",
          "182611.722000",
          "182611.738000",
          "182611.738000",
          "182611.738000",
          "182611.738000",
          "182611.738000",
          "182611.754000",
          "182611.754000",
          "182611.754000",
          "182611.754000",
          "182611.754000",
          "182611.769000",
          "182611.769000",
          "182611.769000",
          "182611.769000",
          "182611.769000",
          "182611.785000",
          "182611.785000",
          "182611.785000",
          "182611.785000",
          "182611.785000",
          "182611.785000",
          "182611.785000",
          "182611.800000",
          "182611.800000",
          "182651.707000",
          "182651.707000",
          "182651.707000",
          "182651.722000",
          "182651.722000",
          "182651.722000",
          "182651.738000",
          "182651.738000",
          "182651.738000",
          "182651.738000",
          "182651.738000",
          "182651.738000",
          "182651.738000",
          "182651.754000",
          "182651.754000",
          "182651.754000",
          "182651.754000",
          "182651.754000",
          "182651.754000",
          "182651.754000",
          "182731.707000",
          "182731.707000",
          "182731.707000",
          "182731.722000",
          "182731.722000",
          "182731.722000",
          "182731.722000",
          "182731.738000",
          "182731.738000",
          "182731.738000",
          "182731.738000",
          "182731.738000",
          "182731.738000",
          "182731.738000",
          "182731.754000",
          "182731.754000",
          "182731.754000",
          "182731.754000",
          "182731.754000",
          "182731.754000",
          "182811.707000",
          "182811.707000",
          "182811.707000",
          "182811.722000",
          "182811.722000",
          "182811.722000",
          "182811.722000",
          "182811.722000",
          "182811.722000",
          "182811.738000",
          "182811.754000",
          "182811.754000",
          "182811.754000",
          "182811.754000",
          "182811.754000",
          "182811.754000",
          "182811.769000",
          "182811.769000",
          "182811.769000",
          "182811.769000",
          "182851.707000",
          "182851.707000",
          "182851.707000",
          "182851.722000",
          "182851.722000",
          "182851.722000",
          "182851.722000",
          "182851.722000",
          "182851.722000",
          "182851.722000",
          "182851.738000",
          "182851.738000",
          "182851.738000",
          "182851.738000",
          "182851.738000",
          "182851.738000",
          "182851.738000",
          "182851.754000",
          "182851.754000",
          "182851.754000",
          "182931.707000",
          "182931.707000",
          "182931.707000",
          "182931.722000",
          "182931.722000",
          "182931.722000",
          "182931.722000",
          "182931.722000",
          "182931.722000",
          "182931.722000",
          "182931.738000",
          "182931.738000",
          "182931.738000",
          "182931.738000",
          "182931.738000",
          "182931.738000",
          "182931.738000",
          "182931.754000",
          "182931.754000",
          "182931.754000",
          "183011.707000",
          "183011.707000",
          "183011.707000",
          "183011.722000",
          "183011.722000",
          "183011.722000",
          "183011.722000",
          "183011.722000",
          "183011.722000",
          "183011.722000",
          "183011.738000",
          "183011.738000",
          "183011.738000",
          "183011.738000",
          "183011.738000",
          "183011.738000",
          "183011.738000",
          "183011.754000",
          "183011.754000",
          "183011.754000",
          "183041.941000",
          "183041.941000",
          "183041.941000",
          "183041.941000",
          "183041.941000",
          "183041.941000",
          "183041.957000",
          "183041.957000",
          "183041.957000",
          "183041.957000",
          "183041.957000",
          "183041.972000",
          "183041.972000",
          "183041.972000",
          "183041.972000",
          "183041.972000"
        ],
        "InstanceCreationTime": [
          "182611.722000",
          "182611.722000",
          "182611.722000",
          "182611.722000",
          "182611.738000",
          "182611.738000",
          "182611.738000",
          "182611.738000",
          "182611.738000",
          "182611.754000",
          "182611.754000",
          "182611.754000",
          "182611.754000",
          "182611.754000",
          "182611.769000",
          "182611.769000",
          "182611.769000",
          "182611.769000",
          "182611.769000",
          "182611.785000",
          "182611.785000",
          "182611.785000",
          "182611.785000",
          "182611.785000",
          "182611.785000",
          "182611.785000",
          "182611.800000",
          "182611.800000",
          "182651.707000",
          "182651.707000",
          "182651.707000",
          "182651.722000",
          "182651.722000",
          "182651.722000",
          "182651.738000",
          "182651.738000",
          "182651.738000",
          "182651.738000",
          "182651.738000",
          "182651.738000",
          "182651.738000",
          "182651.754000",
          "182651.754000",
          "182651.754000",
          "182651.754000",
          "182651.754000",
          "182651.754000",
          "182651.754000",
          "182731.707000",
          "182731.707000",
          "182731.707000",
          "182731.722000",
          "182731.722000",
          "182731.722000",
          "182731.722000",
          "182731.738000",
          "182731.738000",
          "182731.738000",
          "182731.738000",
          "182731.738000",
          "182731.738000",
          "182731.738000",
          "182731.754000",
          "182731.754000",
          "182731.754000",
          "182731.754000",
          "182731.754000",
          "182731.754000",
          "182811.707000",
          "182811.707000",
          "182811.707000",
          "182811.722000",
          "182811.722000",
          "182811.722000",
          "182811.722000",
          "182811.722000",
          "182811.722000",
          "182811.738000",
          "182811.754000",
          "182811.754000",
          "182811.754000",
          "182811.754000",
          "182811.754000",
          "182811.754000",
          "182811.769000",
          "182811.769000",
          "182811.769000",
          "182811.769000",
          "182851.707000",
          "182851.707000",
          "182851.707000",
          "182851.722000",
          "182851.722000",
          "182851.722000",
          "182851.722000",
          "182851.722000",
          "182851.722000",
          "182851.722000",
          "182851.738000",
          "182851.738000",
          "182851.738000",
          "182851.738000",
          "182851.738000",
          "182851.738000",
          "182851.738000",
          "182851.754000",
          "182851.754000",
          "182851.754000",
          "182931.707000",
          "182931.707000",
          "182931.707000",
          "182931.722000",
          "182931.722000",
          "182931.722000",
          "182931.722000",
          "182931.722000",
          "182931.722000",
          "182931.722000",
          "182931.738000",
          "182931.738000",
          "182931.738000",
          "182931.738000",
          "182931.738000",
          "182931.738000",
          "182931.738000",
          "182931.754000",
          "182931.754000",
          "182931.754000",
          "183011.707000",
          "183011.707000",
          "183011.707000",
          "183011.722000",
          "183011.722000",
          "183011.722000",
          "183011.722000",
          "183011.722000",
          "183011.722000",
          "183011.722000",
          "183011.738000",
          "183011.738000",
          "183011.738000",
          "183011.738000",
          "183011.738000",
          "183011.738000",
          "183011.738000",
          "183011.754000",
          "183011.754000",
          "183011.754000",
          "183041.941000",
          "183041.941000",
          "183041.941000",
          "183041.941000",
          "183041.941000",
          "183041.941000",
          "183041.957000",
          "183041.957000",
          "183041.957000",
          "183041.957000",
          "183041.957000",
          "183041.972000",
          "183041.972000",
          "183041.972000",
          "183041.972000",
          "183041.972000"
        ],
        "InstanceNumber": [
          1,
          2,
          3,
          4,
          5,
          6,
          7,
          8,
          9,
          10,
          11,
          12,
          13,
          14,
          15,
          16,
          17,
          18,
          19,
          20,
          21,
          22,
          23,
          24,
          25,
          26,
          27,
          28,
          29,
          30,
          31,
          32,
          33,
          34,
          35,
          36,
          37,
          38,
          39,
          40,
          41,
          42,
          43,
          44,
          45,
          46,
          47,
          48,
          49,
          50,
          51,
          52,
          53,
          54,
          55,
          56,
          57,
          58,
          59,
          60,
          61,
          62,
          63,
          64,
          65,
          66,
          67,
          68,
          69,
          70,
          71,
          72,
          73,
          74,
          75,
          76,
          77,
          78,
          79,
          80,
          81,
          82,
          83,
          84,
          85,
          86,
          87,
          88,
          89,
          90,
          91,
          92,
          93,
          94,
          95,
          96,
          97,
          98,
          99,
          100,
          101,
          102,
          103,
          104,
          105,
          106,
          107,
          108,
          109,
          110,
          111,
          112,
          113,
          114,
          115,
          116,
          117,
          118,
          119,
          120,
          121,
          122,
          123,
          124,
          125,
          126,
          127,
          128,
          129,
          130,
          131,
          132,
          133,
          134,
          135,
          136,
          137,
          138,
          139,
          140,
          141,
          142,
          143,
          144,
          145,
          146,
          147,
          148,
          149,
          150,
          151,
          152,
          153,
          154,
          155,
          156,
          157,
          158,
          159,
          160,
          161,
          162,
          163,
          164
        ],
        "WindowCenter": [
          1170.0,
          1170.0,
          1171.0,
          1170.0,
          1169.0,
          1169.0,
          1167.0,
          1167.0,
          1170.0,
          1171.0,
          1172.0,
          1171.0,
          1170.0,
          1170.0,
          1172.0,
          1173.0,
          1173.0,
          1172.0,
          1168.0,
          1167.0,
          1168.0,
          1168.0,
          1170.0,
          1168.0,
          1165.0,
          1163.0,
          1163.0,
          1165.0,
          1166.0,
          1165.0,
          1165.0,
          1164.0,
          1165.0,
          1165.0,
          1165.0,
          1165.0,
          1164.0,
          1166.0,
          1168.0,
          1167.0,
          1167.0,
          1167.0,
          1166.0,
          1166.0,
          1166.0,
          1166.0,
          1166.0,
          1167.0,
          1169.0,
          1169.0,
          1168.0,
          1167.0,
          1166.0,
          1167.0,
          1167.0,
          1165.0,
          1164.0,
          1164.0,
          1165.0,
          1165.0,
          1165.0,
          1166.0,
          1167.0,
          1167.0,
          1168.0,
          1166.0,
          1166.0,
          1167.0,
          1168.0,
          1167.0,
          1166.0,
          1165.0,
          1165.0,
          1165.0,
          1165.0,
          1166.0,
          1165.0,
          1167.0,
          1167.0,
          1167.0,
          1163.0,
          1162.0,
          1163.0,
          1162.0,
          1162.0,
          1159.0,
          1159.0,
          1162.0,
          1166.0,
          1168.0,
          1168.0,
          1169.0,
          1171.0,
          1171.0,
          1172.0,
          1170.0,
          1168.0,
          1167.0,
          1166.0,
          1167.0,
          1167.0,
          1165.0,
          1165.0,
          1165.0,
          1165.0,
          1165.0,
          1165.0,
          1162.0,
          1162.0,
          1164.0,
          1166.0,
          1166.0,
          1167.0,
          1166.0,
          1164.0,
          1165.0,
          1165.0,
          1166.0,
          1168.0,
          1166.0,
          1164.0,
          1162.0,
          1164.0,
          1164.0,
          1165.0,
          1169.0,
          1168.0,
          1166.0,
          1166.0,
          1166.0,
          1168.0,
          1167.0,
          1166.0,
          1166.0,
          1166.0,
          1167.0,
          1166.0,
          1167.0,
          1168.0,
          1168.0,
          1167.0,
          1165.0,
          1166.0,
          1165.0,
          1164.0,
          1164.0,
          1165.0,
          1164.0,
          1164.0,
          1165.0,
          1166.0,
          1166.0,
          1167.0,
          1165.0,
          1164.0,
          1164.0,
          1165.0,
          1165.0,
          1165.0,
          1165.0,
          1167.0,
          1170.0,
          1166.0,
          1166.0
        ],
        "WindowWidth": [
          2845.0,
          2846.0,
          2850.0,
          2848.0,
          2844.0,
          2839.0,
          2840.0,
          2841.0,
          2847.0,
          2851.0,
          2852.0,
          2849.0,
          2848.0,
          2850.0,
          2851.0,
          2859.0,
          2859.0,
          2853.0,
          2846.0,
          2842.0,
          2845.0,
          2849.0,
          2849.0,
          2840.0,
          2831.0,
          2831.0,
          2836.0,
          2838.0,
          2842.0,
          2842.0,
          2837.0,
          2836.0,
          2840.0,
          2840.0,
          2836.0,
          2837.0,
          2838.0,
          2846.0,
          2847.0,
          2846.0,
          2846.0,
          2845.0,
          2842.0,
          2844.0,
          2844.0,
          2838.0,
          2841.0,
          2847.0,
          2851.0,
          2849.0,
          2847.0,
          2844.0,
          2843.0,
          2847.0,
          2845.0,
          2840.0,
          2838.0,
          2837.0,
          2836.0,
          2838.0,
          2838.0,
          2840.0,
          2844.0,
          2846.0,
          2844.0,
          2844.0,
          2843.0,
          2849.0,
          2849.0,
          2845.0,
          2844.0,
          2842.0,
          2840.0,
          2842.0,
          2841.0,
          2843.0,
          2844.0,
          2842.0,
          2848.0,
          2844.0,
          2833.0,
          2831.0,
          2834.0,
          2830.0,
          2824.0,
          2817.0,
          2821.0,
          2834.0,
          2844.0,
          2851.0,
          2851.0,
          2852.0,
          2858.0,
          2857.0,
          2858.0,
          2853.0,
          2848.0,
          2845.0,
          2846.0,
          2845.0,
          2845.0,
          2836.0,
          2832.0,
          2835.0,
          2838.0,
          2837.0,
          2833.0,
          2828.0,
          2826.0,
          2833.0,
          2840.0,
          2839.0,
          2836.0,
          2838.0,
          2835.0,
          2834.0,
          2838.0,
          2845.0,
          2843.0,
          2838.0,
          2830.0,
          2828.0,
          2830.0,
          2834.0,
          2840.0,
          2847.0,
          2842.0,
          2839.0,
          2842.0,
