{
  "aor": 0.0018549999999999999,
  "aqi": 0.005401467865853658,
  "bids_meta": {
    "AcquisitionMatrixPE": 96,
    "AcquisitionNumber": 1,
    "AcquisitionTime": "19:34:10.310000",
    "BandwidthPerPixelPhaseEncode": 52.083,
    "BaseResolution": 96,
    "BodyPartExamined": "HEAD",
    "ConversionSoftware": "dcm2niix",
    "ConversionSoftwareVersion": "v1.0.20180622 GCC6.3.0",
    "DerivedVendorReportedEchoSpacing": 0.000600004,
    "DeviceSerialNumber": "18926",
    "DwellTime": 2.6e-06,
    "EchoTime": 0.025,
    "EffectiveEchoSpacing": 0.000200001,
    "FlipAngle": 50,
    "ImageOrientationPatientDICOM": [
      0.999992,
      0.00067012,
      0.00404905,
      2.11009e-10,
      0.98658,
      -0.16328
    ],
    "ImageType": [
      "ORIGINAL",
      "PRIMARY",
      "M",
      "ND",
      "ECHO",
      "00",
      "MOSAIC"
    ],
    "InPlanePhaseEncodingDirectionDICOM": "ROW",
    "InstitutionName": "NIMH",
    "InstitutionalDepartmentName": "Department",
    "MRAcquisitionType": "2D",
    "MagneticFieldStrength": 6.98,
    "Manufacturer": "Siemens",
    "ManufacturersModelName": "Investigational_Device_7T",
    "Modality": "MR",
    "ParallelReductionFactorInPlane": 3,
    "PartialFourier": 1,
    "PatientPosition": "HFS",
    "PercentPhaseFOV": 100,
    "PhaseEncodingDirection": "i",
    "PhaseEncodingSteps": 94,
    "PhaseResolution": 1,
    "PixelBandwidth": 2003,
    "ProcedureStepDescription": "UserProtocols_gonzalez",
    "ProtocolName": "NIH_EPI_2.0iso_TR2_Run11",
    "PulseSequenceDetails": "%CustomerSeq%_inati_nih_epi",
    "ReceiveCoilName": "32Ch_Head_7T",
    "ReconMatrixPE": 96,
    "RepetitionTime": 2,
    "SAR": 0.0762284,
    "ScanningSequence": "EP",
    "SequenceName": "epfid2d1_96",
    "SequenceVariant": "SK",
    "SeriesDescription": "NIH_EPI_2.0iso_TR2_Run11",
    "SeriesNumber": 15,
    "ShimSetting": [
      -50,
      191,
      798,
      1012,
      28,
      665,
      75,
      -332
    ],
    "SliceThickness": 2,
    "SliceTiming": [
      1.0025,
      0,
      1.04,
      0.0375,
      1.0775,
      0.0725,
      1.115,
      0.11,
      1.1525,
      0.1475,
      1.19,
      0.185,
      1.225,
      0.2225,
      1.2625,
      0.26,
      1.3,
      0.2975,
      1.3375,
      0.3325,
      1.375,
      0.37,
      1.4125,
      0.4075,
      1.45,
      0.445,
      1.4875,
      0.4825,
      1.5225,
      0.52,
      1.56,
      0.5575,
      1.5975,
      0.595,
      1.635,
      0.63,
      1.6725,
      0.6675,
      1.71,
      0.705,
      1.7475,
      0.7425,
      1.7825,
      0.78,
      1.82,
      0.8175,
      1.8575,
      0.855,
      1.895,
      0.8925,
      1.9325,
      0.9275,
      1.97,
      0.965
    ],
    "SoftwareVersions": "syngo_MR_B17",
    "SpacingBetweenSlices": 2,
    "StationName": "FMRIFD7T",
    "TaskName": "HalfFovNoTask",
    "TotalReadoutTime": 0.0190001,
    "TxRefAmp": 315,
    "dataset": "ds001555",
    "dcmmeta_affine": [
      [
        -1.9999831914901733,
        4.2201880878778297e-10,
        0.008208253420889378,
        95.76705169677734
      ],
      [
        -0.0013402394251897931,
        1.973159670829773,
        -0.32655632495880127,
        -58.3952751159668
      ],
      [
        0.008098097518086433,
        0.32655906677246094,
        1.9731431007385254,
        -41.57032775878906
      ],
      [
        0.0,
        0.0,
        0.0,
        1.0
      ]
    ],
    "dcmmeta_reorient_transform": [
      [
        0.0,
        -1.0,
        0.0,
        95.0
      ],
      [
        1.0,
        0.0,
        0.0,
        0.0
      ],
      [
        0.0,
        0.0,
        1.0,
        0.0
      ],
      [
        0.0,
        0.0,
        0.0,
        1.0
      ]
    ],
    "dcmmeta_shape": [
      96,
      96,
      54,
      164
    ],
    "dcmmeta_slice_dim": 2,
    "dcmmeta_version": 0.6,
    "global": {
      "const": {
        "AcquisitionMatrix": [
          0,
          96,
          96,
          0
        ],
        "AngioFlag": "N",
        "BitsAllocated": 16,
        "BitsStored": 12,
        "BodyPartExamined": "HEAD",
        "Columns": 768,
        "EchoNumbers": 1,
        "EchoTime": 25.0,
        "EchoTrainLength": 1,
        "FlipAngle": 50.0,
        "HighBit": 11,
        "ImageOrientationPatient": [
          0.99999157803662,
          0.00067011969073,
          0.00404904870684,
          2.110094e-10,
          0.98657984636313,
          -0.1632795356133
        ],
        "ImagePositionPatient": [
          -767.761392775,
          -792.48687407585,
          96.455670438306
        ],
        "ImageType": [
          "ORIGINAL",
          "PRIMARY",
          "M",
          "ND",
          "ECHO_00",
          "MOSAIC"
        ],
        "ImagedNucleus": "1H",
        "ImagingFrequency": 297.205178,
        "InPlanePhaseEncodingDirection": "ROW",
        "LargestImagePixelValue": 4095,
        "MRAcquisitionType": "2D",
        "MagneticFieldStrength": 6.98,
        "Manufacturer": "SIEMENS",
        "ManufacturerModelName": "Investigational_Device_7T",
        "Modality": "MR",
        "NumberOfAverages": 1.0,
        "NumberOfPhaseEncodingSteps": 94,
        "PercentPhaseFieldOfView": 100.0,
        "PercentSampling": 100.0,
        "PerformedProcedureStepStartTime": "180252.597000",
        "PhotometricInterpretation": "MONOCHROME2",
        "PixelBandwidth": 2003.0,
        "PixelRepresentation": 0,
        "PixelSpacing": [
          2.0,
          2.0
        ],
        "PositionReferenceIndicator": "",
        "ProtocolName": "NIH_EPI_2.0iso_TR2_Run11",
        "RepetitionTime": 2000.0,
        "Rows": 768,
        "SAR": 0.07622842811543,
        "SamplesPerPixel": 1,
        "ScanningSequence": "EP",
        "SequenceName": "epfid2d1_96",
        "SequenceVariant": "SK",
        "SeriesDescription": "NIH_EPI_2.0iso_TR2_Run11",
        "SeriesNumber": 15,
        "SliceLocation": -31.084389907735,
        "SliceThickness": 2.0,
        "SmallestImagePixelValue": 0,
        "SoftwareVersions": "syngo MR B17",
        "SpacingBetweenSlices": 2.0000000184226,
        "TransmitCoilName": "32Ch_Head_7T",
        "VariableFlipAngleFlag": "N",
        "WindowCenterWidthExplanation": "Algo1",
        "dBdt": 0.0
      },
      "slices": {}
    },
    "modality": "bold",
    "run_id": 12,
    "session_id": "02",
    "subject_id": "001",
    "task_id": "HalfFovNoTask",
    "time": {
      "samples": {
        "AcquisitionNumber": [
          1,
          2,
          3,
          4,
          5,
          6,
          7,
          8,
          9,
          10,
          11,
          12,
          13,
          14,
          15,
          16,
          17,
          18,
          19,
          20,
          21,
          22,
          23,
          24,
          25,
          26,
          27,
          28,
          29,
          30,
          31,
          32,
          33,
          34,
          35,
          36,
          37,
          38,
          39,
          40,
          41,
          42,
          43,
          44,
          45,
          46,
          47,
          48,
          49,
          50,
          51,
          52,
          53,
          54,
          55,
          56,
          57,
          58,
          59,
          60,
          61,
          62,
          63,
          64,
          65,
          66,
          67,
          68,
          69,
          70,
          71,
          72,
          73,
          74,
          75,
          76,
          77,
          78,
          79,
          80,
          81,
          82,
          83,
          84,
          85,
          86,
          87,
          88,
          89,
          90,
          91,
          92,
          93,
          94,
          95,
          96,
          97,
          98,
          99,
          100,
          101,
          102,
          103,
          104,
          105,
          106,
          107,
          108,
          109,
          110,
          111,
          112,
          113,
          114,
          115,
          116,
          117,
          118,
          119,
          120,
          121,
          122,
          123,
          124,
          125,
          126,
          127,
          128,
          129,
          130,
          131,
          132,
          133,
          134,
          135,
          136,
          137,
          138,
          139,
          140,
          141,
          142,
          143,
          144,
          145,
          146,
          147,
          148,
          149,
          150,
          151,
          152,
          153,
          154,
          155,
          156,
          157,
          158,
          159,
          160,
          161,
          162,
          163,
          164
        ],
        "AcquisitionTime": [
          "193410.310000",
          "193414.327500",
          "193416.335000",
          "193418.342500",
          "193420.350000",
          "193422.357500",
          "193424.367500",
          "193426.375000",
          "193428.382500",
          "193430.390000",
          "193432.400000",
          "193434.407500",
          "193436.415000",
          "193438.422500",
          "193440.430000",
          "193442.440000",
          "193444.447500",
          "193446.455000",
          "193448.462500",
          "193450.470000",
          "193452.480000",
          "193454.487500",
          "193456.495000",
          "193458.502500",
          "193500.512500",
          "193502.520000",
          "193504.527500",
          "193506.535000",
          "193508.542500",
          "193510.552500",
          "193512.560000",
          "193514.567500",
          "193516.575000",
          "193518.582500",
          "193520.592500",
          "193522.600000",
          "193524.607500",
          "193526.615000",
          "193528.622500",
          "193530.632500",
          "193532.640000",
          "193534.647500",
          "193536.655000",
          "193538.665000",
          "193540.672500",
          "193542.680000",
          "193544.687500",
          "193546.695000",
          "193548.705000",
          "193550.712500",
          "193552.720000",
          "193554.727500",
          "193556.735000",
          "193558.745000",
          "193600.752500",
          "193602.760000",
          "193604.767500",
          "193606.777500",
          "193608.785000",
          "193610.792500",
          "193612.800000",
          "193614.807500",
          "193616.817500",
          "193618.825000",
          "193620.832500",
          "193622.840000",
          "193624.847500",
          "193626.857500",
          "193628.865000",
          "193630.872500",
          "193632.880000",
          "193634.890000",
          "193636.897500",
          "193638.905000",
          "193640.912500",
          "193642.920000",
          "193644.930000",
          "193646.937500",
          "193648.945000",
          "193650.952500",
          "193652.960000",
          "193654.970000",
          "193656.977500",
          "193658.985000",
          "193700.992500",
          "193703.000000",
          "193705.010000",
          "193707.017500",
          "193709.025000",
          "193711.032500",
          "193713.042500",
          "193715.050000",
          "193717.057500",
          "193719.065000",
          "193721.072500",
          "193723.082500",
          "193725.090000",
          "193727.097500",
          "193729.105000",
          "193731.112500",
          "193733.122500",
          "193735.130000",
          "193737.137500",
          "193739.145000",
          "193741.155000",
          "193743.162500",
          "193745.170000",
          "193747.177500",
          "193749.185000",
          "193751.195000",
          "193753.202500",
          "193755.210000",
          "193757.217500",
          "193759.225000",
          "193801.235000",
          "193803.242500",
          "193805.250000",
          "193807.257500",
          "193809.267500",
          "193811.275000",
          "193813.282500",
          "193815.290000",
          "193817.297500",
          "193819.307500",
          "193821.315000",
          "193823.322500",
          "193825.330000",
          "193827.337500",
          "193829.347500",
          "193831.355000",
          "193833.362500",
          "193835.370000",
          "193837.377500",
          "193839.387500",
          "193841.395000",
          "193843.402500",
          "193845.410000",
          "193847.420000",
          "193849.427500",
          "193851.435000",
          "193853.442500",
          "193855.450000",
          "193857.460000",
          "193859.467500",
          "193901.475000",
          "193903.482500",
          "193905.490000",
          "193907.500000",
          "193909.507500",
          "193911.515000",
          "193913.522500",
          "193915.532500",
          "193917.540000",
          "193919.547500",
          "193921.555000",
          "193923.562500",
          "193925.572500",
          "193927.580000",
          "193929.587500",
          "193931.595000",
          "193933.602500",
          "193935.612500",
          "193937.620000",
          "193939.627500"
        ],
        "ContentTime": [
          "193458.222000",
          "193458.238000",
          "193458.238000",
          "193458.238000",
          "193458.238000",
          "193458.254000",
          "193458.254000",
          "193458.254000",
          "193458.254000",
          "193458.254000",
          "193458.254000",
          "193458.254000",
          "193458.269000",
          "193458.269000",
          "193458.269000",
          "193458.269000",
          "193458.285000",
          "193458.285000",
          "193458.285000",
          "193458.285000",
          "193458.285000",
          "193458.285000",
          "193538.207000",
          "193538.207000",
          "193538.207000",
          "193538.222000",
          "193538.222000",
          "193538.222000",
          "193538.222000",
          "193538.222000",
          "193538.222000",
          "193538.238000",
          "193538.238000",
          "193538.238000",
          "193538.238000",
          "193538.238000",
          "193538.254000",
          "193538.254000",
          "193538.254000",
          "193538.254000",
          "193538.254000",
          "193538.269000",
          "193618.207000",
          "193618.207000",
          "193618.207000",
          "193618.222000",
          "193618.222000",
          "193618.222000",
          "193618.222000",
          "193618.222000",
          "193618.222000",
          "193618.238000",
          "193618.238000",
          "193618.238000",
          "193618.238000",
          "193618.254000",
          "193618.254000",
          "193618.254000",
          "193618.254000",
          "193618.254000",
          "193618.254000",
          "193618.269000",
          "193658.207000",
          "193658.207000",
          "193658.207000",
          "193658.222000",
          "193658.222000",
          "193658.238000",
          "193658.238000",
          "193658.238000",
          "193658.254000",
          "193658.254000",
          "193658.254000",
          "193658.254000",
          "193658.254000",
          "193658.254000",
          "193658.269000",
          "193658.269000",
          "193658.269000",
          "193658.269000",
          "193658.269000",
          "193658.285000",
          "193738.207000",
          "193738.207000",
          "193738.207000",
          "193738.222000",
          "193738.222000",
          "193738.222000",
          "193738.222000",
          "193738.238000",
          "193738.238000",
          "193738.238000",
          "193738.238000",
          "193738.238000",
          "193738.238000",
          "193738.254000",
          "193738.254000",
          "193738.254000",
          "193738.254000",
          "193738.254000",
          "193738.269000",
          "193738.269000",
          "193818.207000",
          "193818.207000",
          "193818.222000",
          "193818.222000",
          "193818.222000",
          "193818.222000",
          "193818.222000",
          "193818.222000",
          "193818.238000",
          "193818.238000",
          "193818.238000",
          "193818.238000",
          "193818.238000",
          "193818.238000",
          "193818.254000",
          "193818.254000",
          "193818.254000",
          "193818.254000",
          "193818.254000",
          "193818.269000",
          "193858.207000",
          "193858.207000",
          "193858.207000",
          "193858.222000",
          "193858.222000",
          "193858.222000",
          "193858.222000",
          "193858.238000",
          "193858.238000",
          "193858.238000",
          "193858.238000",
          "193858.238000",
          "193858.238000",
          "193858.238000",
          "193858.254000",
          "193858.254000",
          "193858.254000",
          "193858.254000",
          "193858.254000",
          "193858.269000",
          "193938.207000",
          "193938.207000",
          "193938.207000",
          "193938.222000",
          "193938.222000",
          "193938.222000",
          "193938.222000",
          "193938.222000",
          "193938.222000",
          "193938.222000",
          "193938.238000",
          "193938.238000",
          "193938.238000",
          "193938.238000",
          "193938.254000",
          "193938.254000",
          "193938.254000",
          "193938.254000",
          "193938.254000",
          "193938.254000",
          "193940.316000",
          "193940.316000"
        ],
        "InstanceCreationTime": [
          "193458.222000",
          "193458.238000",
          "193458.238000",
          "193458.238000",
          "193458.238000",
          "193458.254000",
          "193458.254000",
          "193458.254000",
          "193458.254000",
          "193458.254000",
          "193458.254000",
          "193458.254000",
          "193458.269000",
          "193458.269000",
          "193458.269000",
          "193458.269000",
          "193458.285000",
          "193458.285000",
          "193458.285000",
          "193458.285000",
          "193458.285000",
          "193458.285000",
          "193538.207000",
          "193538.207000",
          "193538.207000",
          "193538.222000",
          "193538.222000",
          "193538.222000",
          "193538.222000",
          "193538.222000",
          "193538.222000",
          "193538.238000",
          "193538.238000",
          "193538.238000",
          "193538.238000",
          "193538.238000",
          "193538.254000",
          "193538.254000",
          "193538.254000",
          "193538.254000",
          "193538.254000",
          "193538.269000",
          "193618.207000",
          "193618.207000",
          "193618.207000",
          "193618.222000",
          "193618.222000",
          "193618.222000",
          "193618.222000",
          "193618.222000",
          "193618.222000",
          "193618.238000",
          "193618.238000",
          "193618.238000",
          "193618.238000",
          "193618.254000",
          "193618.254000",
          "193618.254000",
          "193618.254000",
          "193618.254000",
          "193618.254000",
          "193618.269000",
          "193658.207000",
          "193658.207000",
          "193658.207000",
          "193658.222000",
          "193658.222000",
          "193658.238000",
          "193658.238000",
          "193658.238000",
          "193658.254000",
          "193658.254000",
          "193658.254000",
          "193658.254000",
          "193658.254000",
          "193658.254000",
          "193658.269000",
          "193658.269000",
          "193658.269000",
          "193658.269000",
          "193658.269000",
          "193658.285000",
          "193738.207000",
          "193738.207000",
          "193738.207000",
          "193738.222000",
          "193738.222000",
          "193738.222000",
          "193738.222000",
          "193738.238000",
          "193738.238000",
          "193738.238000",
          "193738.238000",
          "193738.238000",
          "193738.238000",
          "193738.254000",
          "193738.254000",
          "193738.254000",
          "193738.254000",
          "193738.254000",
          "193738.269000",
          "193738.269000",
          "193818.207000",
          "193818.207000",
          "193818.222000",
          "193818.222000",
          "193818.222000",
          "193818.222000",
          "193818.222000",
          "193818.222000",
          "193818.238000",
          "193818.238000",
          "193818.238000",
          "193818.238000",
          "193818.238000",
          "193818.238000",
          "193818.254000",
          "193818.254000",
          "193818.254000",
          "193818.254000",
          "193818.254000",
          "193818.269000",
          "193858.207000",
          "193858.207000",
          "193858.207000",
          "193858.222000",
          "193858.222000",
          "193858.222000",
          "193858.222000",
          "193858.238000",
          "193858.238000",
          "193858.238000",
          "193858.238000",
          "193858.238000",
          "193858.238000",
          "193858.238000",
          "193858.254000",
          "193858.254000",
          "193858.254000",
          "193858.254000",
          "193858.254000",
          "193858.269000",
          "193938.207000",
          "193938.207000",
          "193938.207000",
          "193938.222000",
          "193938.222000",
          "193938.222000",
          "193938.222000",
          "193938.222000",
          "193938.222000",
          "193938.222000",
          "193938.238000",
          "193938.238000",
          "193938.238000",
          "193938.238000",
          "193938.254000",
          "193938.254000",
          "193938.254000",
          "193938.254000",
          "193938.254000",
          "193938.254000",
          "193940.316000",
          "193940.316000"
        ],
        "InstanceNumber": [
          1,
          2,
          3,
          4,
          5,
          6,
          7,
          8,
          9,
          10,
          11,
          12,
          13,
          14,
          15,
          16,
          17,
          18,
          19,
          20,
          21,
          22,
          23,
          24,
          25,
          26,
          27,
          28,
          29,
          30,
          31,
          32,
          33,
          34,
          35,
          36,
          37,
          38,
          39,
          40,
          41,
          42,
          43,
          44,
          45,
          46,
          47,
          48,
          49,
          50,
          51,
          52,
          53,
          54,
          55,
          56,
          57,
          58,
          59,
          60,
          61,
          62,
          63,
          64,
          65,
          66,
          67,
          68,
          69,
          70,
          71,
          72,
          73,
          74,
          75,
          76,
          77,
          78,
          79,
          80,
          81,
          82,
          83,
          84,
          85,
          86,
          87,
          88,
          89,
          90,
          91,
          92,
          93,
          94,
          95,
          96,
          97,
          98,
          99,
          100,
          101,
          102,
          103,
          104,
          105,
          106,
          107,
          108,
          109,
          110,
          111,
          112,
          113,
          114,
          115,
          116,
          117,
          118,
          119,
          120,
          121,
          122,
          123,
          124,
          125,
          126,
          127,
          128,
          129,
          130,
          131,
          132,
          133,
          134,
          135,
          136,
          137,
          138,
          139,
          140,
          141,
          142,
          143,
          144,
          145,
          146,
          147,
          148,
          149,
          150,
          151,
          152,
          153,
          154,
          155,
          156,
          157,
          158,
          159,
          160,
          161,
          162,
          163,
          164
        ],
        "WindowCenter": [
          1180.0,
          1177.0,
          1176.0,
          1175.0,
          1175.0,
          1176.0,
          1177.0,
          1177.0,
          1177.0,
          1178.0,
          1179.0,
          1180.0,
          1180.0,
          1179.0,
          1180.0,
          1181.0,
          1181.0,
          1180.0,
          1179.0,
          1179.0,
          1179.0,
          1179.0,
          1177.0,
          1176.0,
          1176.0,
          1177.0,
          1176.0,
          1177.0,
          1177.0,
          1174.0,
          1172.0,
          1171.0,
          1178.0,
          1180.0,
          1181.0,
          1177.0,
          1175.0,
          1178.0,
          1181.0,
          1180.0,
          1175.0,
          1176.0,
          1180.0,
          1180.0,
          1178.0,
          1179.0,
          1178.0,
          1179.0,
          1178.0,
          1176.0,
          1178.0,
          1179.0,
          1180.0,
          1180.0,
          1179.0,
          1178.0,
          1178.0,
          1178.0,
          1177.0,
          1178.0,
          1179.0,
          1179.0,
          1178.0,
          1177.0,
          1177.0,
          1179.0,
          1179.0,
          1177.0,
          1177.0,
          1178.0,
          1178.0,
          1179.0,
          1181.0,
          1182.0,
          1183.0,
          1183.0,
          1180.0,
          1179.0,
          1181.0,
          1182.0,
          1183.0,
          1182.0,
          1180.0,
          1178.0,
          1178.0,
          1179.0,
          1179.0,
          1178.0,
          1178.0,
          1183.0,
          1184.0,
          1183.0,
          1182.0,
          1182.0,
          1181.0,
          1181.0,
          1181.0,
          1181.0,
          1182.0,
          1182.0,
          1182.0,
          1183.0,
          1183.0,
          1184.0,
          1184.0,
          1181.0,
          1181.0,
          1182.0,
          1181.0,
          1183.0,
          1183.0,
          1182.0,
          1181.0,
          1180.0,
          1180.0,
          1180.0,
          1179.0,
          1180.0,
          1183.0,
          1184.0,
          1181.0,
          1182.0,
          1181.0,
          1181.0,
          1183.0,
          1183.0,
          1184.0,
          1183.0,
          1182.0,
          1180.0,
          1179.0,
          1182.0,
          1182.0,
          1183.0,
          1184.0,
          1183.0,
          1182.0,
          1183.0,
          1183.0,
          1183.0,
          1183.0,
          1184.0,
          1183.0,
          1184.0,
          1182.0,
          1181.0,
          1178.0,
          1177.0,
          1180.0,
          1182.0,
          1183.0,
          1183.0,
          1181.0,
          1182.0,
          1181.0,
          1181.0,
          1181.0,
          1181.0,
          1182.0,
          1182.0,
          1182.0,
          1180.0,
          1179.0,
          1178.0
        ],
        "WindowWidth": [
          2840.0,
          2835.0,
          2833.0,
          2831.0,
          2831.0,
          2834.0,
          2836.0,
          2835.0,
          2840.0,
          2841.0,
          2842.0,
          2844.0,
          2844.0,
          2841.0,
          2846.0,
          2849.0,
          2846.0,
          2844.0,
          2845.0,
          2845.0,
          2845.0,
          2842.0,
          2838.0,
          2836.0,
          2836.0,
          2835.0,
          2834.0,
          2838.0,
          2838.0,
          2828.0,
          2822.0,
          2822.0,
          2840.0,
          2846.0,
          2844.0,
          2833.0,
          2831.0,
          2844.0,
          2851.0,
          2838.0,
          2830.0,
          2835.0,
          2844.0,
          2846.0,
          2840.0,
          2840.0,
          2840.0,
          2838.0,
          2835.0,
          2834.0,
          2839.0,
          2841.0,
          2841.0,
          2841.0,
          2842.0,
          2837.0,
          2837.0,
          2838.0,
          2837.0,
          2838.0,
          2840.0,
          2838.0,
          2839.0,
          2839.0,
          2840.0,
          2841.0,
          2841.0,
          2838.0,
          2837.0,
          2838.0,
          2838.0,
          2840.0,
          2845.0,
          2848.0,
          2849.0,
          2848.0,
          2843.0,
          2840.0,
          2844.0,
          2849.0,
          2850.0,
          2845.0,
          2840.0,
          2837.0,
          2840.0,
          2839.0,
          2837.0,
          2838.0,
          2840.0,
          2848.0,
          2849.0,
          2846.0,
          2843.0,
          2843.0,
          2842.0,
          2841.0,
          2842.0,
          2844.0,
          2846.0,
          2846.0,
          2845.0,
          2848.0,
          2848.0,
          2851.0,
          2850.0,
          2845.0,
          2844.0,
          2845.0,
          2847.0,
          2849.0,
          2848.0,
          2845.0,
          2845.0,
          2842.0,
          2841.0,
          2839.0,
          2836.0,
          2840.0,
          2849.0,
          2853.0,
          2841.0,
          2844.0,
          2845.0,
          2848.0,
          2848.0,
          2846.0,
          2849.0,
          2846.0,
          2846.0,
