{
  "aor": 0.0014254268292682925,
  "aqi": 0.006471353841463414,
  "bids_meta": {
    "AcquisitionMatrixPE": 96,
    "AcquisitionNumber": 1,
    "AcquisitionTime": "18:31:43.087500",
    "BandwidthPerPixelPhaseEncode": 52.083,
    "BaseResolution": 96,
    "BodyPartExamined": "HEAD",
    "ConversionSoftware": "dcm2niix",
    "ConversionSoftwareVersion": "v1.0.20180622 GCC6.3.0",
    "DerivedVendorReportedEchoSpacing": 0.000600004,
    "DeviceSerialNumber": "18926",
    "DwellTime": 2.6e-06,
    "EchoTime": 0.025,
    "EffectiveEchoSpacing": 0.000200001,
    "FlipAngle": 50,
    "ImageOrientationPatientDICOM": [
      0.999992,
      0.00067012,
      0.00404905,
      2.11009e-10,
      0.98658,
      -0.16328
    ],
    "ImageType": [
      "ORIGINAL",
      "PRIMARY",
      "M",
      "ND",
      "ECHO",
      "00",
      "MOSAIC"
    ],
    "InPlanePhaseEncodingDirectionDICOM": "ROW",
    "InstitutionName": "NIMH",
    "InstitutionalDepartmentName": "Department",
    "MRAcquisitionType": "2D",
    "MagneticFieldStrength": 6.98,
    "Manufacturer": "Siemens",
    "ManufacturersModelName": "Investigational_Device_7T",
    "Modality": "MR",
    "ParallelReductionFactorInPlane": 3,
    "PartialFourier": 1,
    "PatientPosition": "HFS",
    "PercentPhaseFOV": 100,
    "PhaseEncodingDirection": "i",
    "PhaseEncodingSteps": 94,
    "PhaseResolution": 1,
    "PixelBandwidth": 2003,
    "ProcedureStepDescription": "UserProtocols_gonzalez",
    "ProtocolName": "NIH_EPI_2.0iso_TR2_Run02",
    "PulseSequenceDetails": "%CustomerSeq%_inati_nih_epi",
    "ReceiveCoilName": "32Ch_Head_7T",
    "ReconMatrixPE": 96,
    "RepetitionTime": 2,
    "SAR": 0.0762284,
    "ScanningSequence": "EP",
    "SequenceName": "epfid2d1_96",
    "SequenceVariant": "SK",
    "SeriesDescription": "NIH_EPI_2.0iso_TR2_Run02",
    "SeriesNumber": 6,
    "ShimSetting": [
      -50,
      191,
      798,
      1012,
      28,
      665,
      75,
      -332
    ],
    "SliceThickness": 2,
    "SliceTiming": [
      1.005,
      0,
      1.0425,
      0.0375,
      1.0775,
      0.075,
      1.115,
      0.1125,
      1.1525,
      0.15,
      1.19,
      0.1875,
      1.2275,
      0.2225,
      1.265,
      0.26,
      1.3025,
      0.2975,
      1.34,
      0.335,
      1.375,
      0.3725,
      1.4125,
      0.41,
      1.45,
      0.4475,
      1.4875,
      0.485,
      1.525,
      0.52,
      1.5625,
      0.5575,
      1.6,
      0.595,
      1.6375,
      0.6325,
      1.6725,
      0.67,
      1.71,
      0.7075,
      1.7475,
      0.745,
      1.785,
      0.78,
      1.8225,
      0.8175,
      1.86,
      0.855,
      1.8975,
      0.8925,
      1.935,
      0.93,
      1.97,
      0.9675
    ],
    "SoftwareVersions": "syngo_MR_B17",
    "SpacingBetweenSlices": 2,
    "StationName": "FMRIFD7T",
    "TaskName": "HalfFovNoTask",
    "TotalReadoutTime": 0.0190001,
    "TxRefAmp": 315,
    "dataset": "ds001555",
    "dcmmeta_affine": [
      [
        -1.9999831914901733,
        4.2201880878778297e-10,
        0.008208253420889378,
        95.76705169677734
      ],
      [
        -0.0013402394251897931,
        1.973159670829773,
        -0.32655632495880127,
        -58.3952751159668
      ],
      [
        0.008098097518086433,
        0.32655906677246094,
        1.9731431007385254,
        -41.57032775878906
      ],
      [
        0.0,
        0.0,
        0.0,
        1.0
      ]
    ],
    "dcmmeta_reorient_transform": [
      [
        0.0,
        -1.0,
        0.0,
        95.0
      ],
      [
        1.0,
        0.0,
        0.0,
        0.0
      ],
      [
        0.0,
        0.0,
        1.0,
        0.0
      ],
      [
        0.0,
        0.0,
        0.0,
        1.0
      ]
    ],
    "dcmmeta_shape": [
      96,
      96,
      54,
      164
    ],
    "dcmmeta_slice_dim": 2,
    "dcmmeta_version": 0.6,
    "global": {
      "const": {
        "AcquisitionMatrix": [
          0,
          96,
          96,
          0
        ],
        "AngioFlag": "N",
        "BitsAllocated": 16,
        "BitsStored": 12,
        "BodyPartExamined": "HEAD",
        "Columns": 768,
        "EchoNumbers": 1,
        "EchoTime": 25.0,
        "EchoTrainLength": 1,
        "FlipAngle": 50.0,
        "HighBit": 11,
        "ImageOrientationPatient": [
          0.99999157803662,
          0.00067011969073,
          0.00404904870684,
          2.110094e-10,
          0.98657984636313,
          -0.1632795356133
        ],
        "ImagePositionPatient": [
          -767.761392775,
          -792.48687407585,
          96.455670438306
        ],
        "ImageType": [
          "ORIGINAL",
          "PRIMARY",
          "M",
          "ND",
          "ECHO_00",
          "MOSAIC"
        ],
        "ImagedNucleus": "1H",
        "ImagingFrequency": 297.204965,
        "InPlanePhaseEncodingDirection": "ROW",
        "LargestImagePixelValue": 4095,
        "MRAcquisitionType": "2D",
        "MagneticFieldStrength": 6.98,
        "Manufacturer": "SIEMENS",
        "ManufacturerModelName": "Investigational_Device_7T",
        "Modality": "MR",
        "NumberOfAverages": 1.0,
        "NumberOfPhaseEncodingSteps": 94,
        "PercentPhaseFieldOfView": 100.0,
        "PercentSampling": 100.0,
        "PerformedProcedureStepStartTime": "180252.597000",
        "PhotometricInterpretation": "MONOCHROME2",
        "PixelBandwidth": 2003.0,
        "PixelRepresentation": 0,
        "PixelSpacing": [
          2.0,
          2.0
        ],
        "PositionReferenceIndicator": "",
        "ProtocolName": "NIH_EPI_2.0iso_TR2_Run02",
        "RepetitionTime": 2000.0,
        "Rows": 768,
        "SAR": 0.07622842811543,
        "SamplesPerPixel": 1,
        "ScanningSequence": "EP",
        "SequenceName": "epfid2d1_96",
        "SequenceVariant": "SK",
        "SeriesDescription": "NIH_EPI_2.0iso_TR2_Run02",
        "SeriesNumber": 6,
        "SliceLocation": -31.084389907735,
        "SliceThickness": 2.0,
        "SmallestImagePixelValue": 0,
        "SoftwareVersions": "syngo MR B17",
        "SpacingBetweenSlices": 2.0000000184226,
        "TransmitCoilName": "32Ch_Head_7T",
        "VariableFlipAngleFlag": "N",
        "WindowCenterWidthExplanation": "Algo1",
        "dBdt": 0.0
      },
      "slices": {}
    },
    "modality": "bold",
    "run_id": 3,
    "session_id": "02",
    "subject_id": "001",
    "task_id": "HalfFovNoTask",
    "time": {
      "samples": {
        "AcquisitionNumber": [
          1,
          2,
          3,
          4,
          5,
          6,
          7,
          8,
          9,
          10,
          11,
          12,
          13,
          14,
          15,
          16,
          17,
          18,
          19,
          20,
          21,
          22,
          23,
          24,
          25,
          26,
          27,
          28,
          29,
          30,
          31,
          32,
          33,
          34,
          35,
          36,
          37,
          38,
          39,
          40,
          41,
          42,
          43,
          44,
          45,
          46,
          47,
          48,
          49,
          50,
          51,
          52,
          53,
          54,
          55,
          56,
          57,
          58,
          59,
          60,
          61,
          62,
          63,
          64,
          65,
          66,
          67,
          68,
          69,
          70,
          71,
          72,
          73,
          74,
          75,
          76,
          77,
          78,
          79,
          80,
          81,
          82,
          83,
          84,
          85,
          86,
          87,
          88,
          89,
          90,
          91,
          92,
          93,
          94,
          95,
          96,
          97,
          98,
          99,
          100,
          101,
          102,
          103,
          104,
          105,
          106,
          107,
          108,
          109,
          110,
          111,
          112,
          113,
          114,
          115,
          116,
          117,
          118,
          119,
          120,
          121,
          122,
          123,
          124,
          125,
          126,
          127,
          128,
          129,
          130,
          131,
          132,
          133,
          134,
          135,
          136,
          137,
          138,
          139,
          140,
          141,
          142,
          143,
          144,
          145,
          146,
          147,
          148,
          149,
          150,
          151,
          152,
          153,
          154,
          155,
          156,
          157,
          158,
          159,
          160,
          161,
          162,
          163,
          164
        ],
        "AcquisitionTime": [
          "183143.087500",
          "183147.102500",
          "183149.110000",
          "183151.120000",
          "183153.127500",
          "183155.135000",
          "183157.142500",
          "183159.150000",
          "183201.160000",
          "183203.167500",
          "183205.175000",
          "183207.182500",
          "183209.190000",
          "183211.200000",
          "183213.207500",
          "183215.215000",
          "183217.222500",
          "183219.232500",
          "183221.240000",
          "183223.247500",
          "183225.255000",
          "183227.262500",
          "183229.272500",
          "183231.280000",
          "183233.287500",
          "183235.295000",
          "183237.302500",
          "183239.312500",
          "183241.320000",
          "183243.327500",
          "183245.335000",
          "183247.345000",
          "183249.352500",
          "183251.360000",
          "183253.367500",
          "183255.375000",
          "183257.385000",
          "183259.392500",
          "183301.400000",
          "183303.407500",
          "183305.415000",
          "183307.425000",
          "183309.432500",
          "183311.440000",
          "183313.447500",
          "183315.457500",
          "183317.465000",
          "183319.472500",
          "183321.480000",
          "183323.487500",
          "183325.497500",
          "183327.505000",
          "183329.512500",
          "183331.520000",
          "183333.527500",
          "183335.537500",
          "183337.545000",
          "183339.552500",
          "183341.560000",
          "183343.567500",
          "183345.577500",
          "183347.585000",
          "183349.592500",
          "183351.600000",
          "183353.610000",
          "183355.617500",
          "183357.625000",
          "183359.632500",
          "183401.640000",
          "183403.650000",
          "183405.657500",
          "183407.665000",
          "183409.672500",
          "183411.680000",
          "183413.690000",
          "183415.697500",
          "183417.705000",
          "183419.712500",
          "183421.722500",
          "183423.730000",
          "183425.737500",
          "183427.745000",
          "183429.752500",
          "183431.762500",
          "183433.770000",
          "183435.777500",
          "183437.785000",
          "183439.792500",
          "183441.802500",
          "183443.810000",
          "183445.817500",
          "183447.825000",
          "183449.835000",
          "183451.842500",
          "183453.850000",
          "183455.857500",
          "183457.865000",
          "183459.875000",
          "183501.882500",
          "183503.890000",
          "183505.897500",
          "183507.905000",
          "183509.915000",
          "183511.922500",
          "183513.930000",
          "183515.937500",
          "183517.945000",
          "183519.955000",
          "183521.962500",
          "183523.970000",
          "183525.977500",
          "183527.987500",
          "183529.995000",
          "183532.002500",
          "183534.010000",
          "183536.017500",
          "183538.027500",
          "183540.035000",
          "183542.042500",
          "183544.050000",
          "183546.057500",
          "183548.067500",
          "183550.075000",
          "183552.082500",
          "183554.090000",
          "183556.100000",
          "183558.107500",
          "183600.115000",
          "183602.122500",
          "183604.130000",
          "183606.140000",
          "183608.147500",
          "183610.155000",
          "183612.162500",
          "183614.170000",
          "183616.180000",
          "183618.187500",
          "183620.195000",
          "183622.202500",
          "183624.212500",
          "183626.220000",
          "183628.227500",
          "183630.235000",
          "183632.242500",
          "183634.252500",
          "183636.260000",
          "183638.267500",
          "183640.275000",
          "183642.282500",
          "183644.292500",
          "183646.300000",
          "183648.307500",
          "183650.315000",
          "183652.322500",
          "183654.332500",
          "183656.340000",
          "183658.347500",
          "183700.355000",
          "183702.365000",
          "183704.372500",
          "183706.380000",
          "183708.387500",
          "183710.395000",
          "183712.405000"
        ],
        "ContentTime": [
          "183238.222000",
          "183238.222000",
          "183238.222000",
          "183238.222000",
          "183238.222000",
          "183238.222000",
          "183238.238000",
          "183238.238000",
          "183238.238000",
          "183238.238000",
          "183238.238000",
          "183238.238000",
          "183238.238000",
          "183238.254000",
          "183238.254000",
          "183238.254000",
          "183238.254000",
          "183238.254000",
          "183238.254000",
          "183238.269000",
          "183238.269000",
          "183238.269000",
          "183238.269000",
          "183238.285000",
          "183238.285000",
          "183238.285000",
          "183318.207000",
          "183318.207000",
          "183318.207000",
          "183318.222000",
          "183318.222000",
          "183318.222000",
          "183318.222000",
          "183318.222000",
          "183318.222000",
          "183318.222000",
          "183318.238000",
          "183318.238000",
          "183318.238000",
          "183318.238000",
          "183318.238000",
          "183318.254000",
          "183318.254000",
          "183318.254000",
          "183318.254000",
          "183318.254000",
          "183358.207000",
          "183358.207000",
          "183358.207000",
          "183358.222000",
          "183358.222000",
          "183358.222000",
          "183358.222000",
          "183358.222000",
          "183358.238000",
          "183358.238000",
          "183358.254000",
          "183358.254000",
          "183358.254000",
          "183358.254000",
          "183358.254000",
          "183358.254000",
          "183358.254000",
          "183358.269000",
          "183358.269000",
          "183358.269000",
          "183438.207000",
          "183438.207000",
          "183438.207000",
          "183438.222000",
          "183438.222000",
          "183438.222000",
          "183438.238000",
          "183438.238000",
          "183438.238000",
          "183438.238000",
          "183438.254000",
          "183438.254000",
          "183438.410000",
          "183438.410000",
          "183438.410000",
          "183438.410000",
          "183438.410000",
          "183438.425000",
          "183438.425000",
          "183438.425000",
          "183518.207000",
          "183518.207000",
          "183518.207000",
          "183518.222000",
          "183518.222000",
          "183518.222000",
          "183518.222000",
          "183518.222000",
          "183518.222000",
          "183518.222000",
          "183518.238000",
          "183518.238000",
          "183518.238000",
          "183518.238000",
          "183518.238000",
          "183518.238000",
          "183518.254000",
          "183518.254000",
          "183518.254000",
          "183518.254000",
          "183558.207000",
          "183558.207000",
          "183558.222000",
          "183558.222000",
          "183558.222000",
          "183558.222000",
          "183558.222000",
          "183558.238000",
          "183558.238000",
          "183558.238000",
          "183558.238000",
          "183558.238000",
          "183558.238000",
          "183558.238000",
          "183558.254000",
          "183558.254000",
          "183558.254000",
          "183558.254000",
          "183558.254000",
          "183558.254000",
          "183638.207000",
          "183638.207000",
          "183638.207000",
          "183638.222000",
          "183638.222000",
          "183638.222000",
          "183638.222000",
          "183638.238000",
          "183638.238000",
          "183638.238000",
          "183638.238000",
          "183638.238000",
          "183638.238000",
          "183638.238000",
          "183638.254000",
          "183638.254000",
          "183638.254000",
          "183638.254000",
          "183638.269000",
          "183638.269000",
          "183713.082000",
          "183713.082000",
          "183713.097000",
          "183713.113000",
          "183713.113000",
          "183713.113000",
          "183713.113000",
          "183713.113000",
          "183713.129000",
          "183713.129000",
          "183713.129000",
          "183713.129000",
          "183713.144000",
          "183713.144000",
          "183713.160000",
          "183713.160000",
          "183713.160000",
          "183713.160000"
        ],
        "InstanceCreationTime": [
          "183238.222000",
          "183238.222000",
          "183238.222000",
          "183238.222000",
          "183238.222000",
          "183238.222000",
          "183238.238000",
          "183238.238000",
          "183238.238000",
          "183238.238000",
          "183238.238000",
          "183238.238000",
          "183238.238000",
          "183238.254000",
          "183238.254000",
          "183238.254000",
          "183238.254000",
          "183238.254000",
          "183238.254000",
          "183238.269000",
          "183238.269000",
          "183238.269000",
          "183238.269000",
          "183238.285000",
          "183238.285000",
          "183238.285000",
          "183318.207000",
          "183318.207000",
          "183318.207000",
          "183318.222000",
          "183318.222000",
          "183318.222000",
          "183318.222000",
          "183318.222000",
          "183318.222000",
          "183318.222000",
          "183318.238000",
          "183318.238000",
          "183318.238000",
          "183318.238000",
          "183318.238000",
          "183318.254000",
          "183318.254000",
          "183318.254000",
          "183318.254000",
          "183318.254000",
          "183358.207000",
          "183358.207000",
          "183358.207000",
          "183358.222000",
          "183358.222000",
          "183358.222000",
          "183358.222000",
          "183358.222000",
          "183358.238000",
          "183358.238000",
          "183358.254000",
          "183358.254000",
          "183358.254000",
          "183358.254000",
          "183358.254000",
          "183358.254000",
          "183358.254000",
          "183358.269000",
          "183358.269000",
          "183358.269000",
          "183438.207000",
          "183438.207000",
          "183438.207000",
          "183438.222000",
          "183438.222000",
          "183438.222000",
          "183438.238000",
          "183438.238000",
          "183438.238000",
          "183438.238000",
          "183438.254000",
          "183438.254000",
          "183438.410000",
          "183438.410000",
          "183438.410000",
          "183438.410000",
          "183438.410000",
          "183438.425000",
          "183438.425000",
          "183438.425000",
          "183518.207000",
          "183518.207000",
          "183518.207000",
          "183518.222000",
          "183518.222000",
          "183518.222000",
          "183518.222000",
          "183518.222000",
          "183518.222000",
          "183518.222000",
          "183518.238000",
          "183518.238000",
          "183518.238000",
          "183518.238000",
          "183518.238000",
          "183518.238000",
          "183518.254000",
          "183518.254000",
          "183518.254000",
          "183518.254000",
          "183558.207000",
          "183558.207000",
          "183558.222000",
          "183558.222000",
          "183558.222000",
          "183558.222000",
          "183558.222000",
          "183558.238000",
          "183558.238000",
          "183558.238000",
          "183558.238000",
          "183558.238000",
          "183558.238000",
          "183558.238000",
          "183558.254000",
          "183558.254000",
          "183558.254000",
          "183558.254000",
          "183558.254000",
          "183558.254000",
          "183638.207000",
          "183638.207000",
          "183638.207000",
          "183638.222000",
          "183638.222000",
          "183638.222000",
          "183638.222000",
          "183638.238000",
          "183638.238000",
          "183638.238000",
          "183638.238000",
          "183638.238000",
          "183638.238000",
          "183638.238000",
          "183638.254000",
          "183638.254000",
          "183638.254000",
          "183638.254000",
          "183638.269000",
          "183638.269000",
          "183713.082000",
          "183713.082000",
          "183713.097000",
          "183713.113000",
          "183713.113000",
          "183713.113000",
          "183713.113000",
          "183713.113000",
          "183713.129000",
          "183713.129000",
          "183713.129000",
          "183713.129000",
          "183713.144000",
          "183713.144000",
          "183713.160000",
          "183713.160000",
          "183713.160000",
          "183713.160000"
        ],
        "InstanceNumber": [
          1,
          2,
          3,
          4,
          5,
          6,
          7,
          8,
          9,
          10,
          11,
          12,
          13,
          14,
          15,
          16,
          17,
          18,
          19,
          20,
          21,
          22,
          23,
          24,
          25,
          26,
          27,
          28,
          29,
          30,
          31,
          32,
          33,
          34,
          35,
          36,
          37,
          38,
          39,
          40,
          41,
          42,
          43,
          44,
          45,
          46,
          47,
          48,
          49,
          50,
          51,
          52,
          53,
          54,
          55,
          56,
          57,
          58,
          59,
          60,
          61,
          62,
          63,
          64,
          65,
          66,
          67,
          68,
          69,
          70,
          71,
          72,
          73,
          74,
          75,
          76,
          77,
          78,
          79,
          80,
          81,
          82,
          83,
          84,
          85,
          86,
          87,
          88,
          89,
          90,
          91,
          92,
          93,
          94,
          95,
          96,
          97,
          98,
          99,
          100,
          101,
          102,
          103,
          104,
          105,
          106,
          107,
          108,
          109,
          110,
          111,
          112,
          113,
          114,
          115,
          116,
          117,
          118,
          119,
          120,
          121,
          122,
          123,
          124,
          125,
          126,
          127,
          128,
          129,
          130,
          131,
          132,
          133,
          134,
          135,
          136,
          137,
          138,
          139,
          140,
          141,
          142,
          143,
          144,
          145,
          146,
          147,
          148,
          149,
          150,
          151,
          152,
          153,
          154,
          155,
          156,
          157,
          158,
          159,
          160,
          161,
          162,
          163,
          164
        ],
        "WindowCenter": [
          1167.0,
          1166.0,
          1165.0,
          1165.0,
          1165.0,
          1163.0,
          1164.0,
          1166.0,
          1168.0,
          1170.0,
          1170.0,
          1168.0,
          1167.0,
          1166.0,
          1166.0,
          1166.0,
          1163.0,
          1165.0,
          1165.0,
          1165.0,
          1165.0,
          1168.0,
          1168.0,
          1167.0,
          1166.0,
          1166.0,
          1167.0,
          1169.0,
          1171.0,
          1170.0,
          1169.0,
          1169.0,
          1168.0,
          1167.0,
          1168.0,
          1167.0,
          1167.0,
          1167.0,
          1166.0,
          1165.0,
          1165.0,
          1165.0,
          1166.0,
          1167.0,
          1166.0,
          1168.0,
          1171.0,
          1170.0,
          1169.0,
          1168.0,
          1165.0,
          1167.0,
          1169.0,
          1169.0,
          1168.0,
          1168.0,
          1169.0,
          1170.0,
          1169.0,
          1167.0,
          1166.0,
          1166.0,
          1169.0,
          1168.0,
          1167.0,
          1167.0,
          1167.0,
          1170.0,
          1170.0,
          1170.0,
          1169.0,
          1168.0,
          1167.0,
          1169.0,
          1171.0,
          1171.0,
          1170.0,
          1167.0,
          1165.0,
          1166.0,
          1167.0,
          1169.0,
          1171.0,
          1171.0,
          1169.0,
          1168.0,
          1168.0,
          1168.0,
          1169.0,
          1170.0,
          1170.0,
          1169.0,
          1169.0,
          1170.0,
          1169.0,
          1169.0,
          1169.0,
          1169.0,
          1171.0,
          1173.0,
          1173.0,
          1172.0,
          1171.0,
          1171.0,
          1171.0,
          1172.0,
          1173.0,
          1172.0,
          1172.0,
          1172.0,
          1170.0,
          1170.0,
          1170.0,
          1170.0,
          1169.0,
          1167.0,
          1170.0,
          1169.0,
          1169.0,
          1169.0,
          1170.0,
          1171.0,
          1169.0,
          1168.0,
          1172.0,
          1173.0,
          1171.0,
          1169.0,
          1167.0,
          1170.0,
          1173.0,
          1172.0,
          1171.0,
          1168.0,
          1169.0,
          1170.0,
          1169.0,
          1169.0,
          1168.0,
          1168.0,
          1167.0,
          1168.0,
          1170.0,
          1170.0,
          1170.0,
          1169.0,
          1171.0,
          1173.0,
          1173.0,
          1172.0,
          1171.0,
          1170.0,
          1172.0,
          1172.0,
          1172.0,
          1171.0,
          1170.0,
          1168.0,
          1167.0,
          1168.0,
          1172.0,
          1173.0,
          1173.0,
          1170.0
        ],
        "WindowWidth": [
          2841.0,
          2838.0,
          2834.0,
          2834.0,
          2832.0,
          2830.0,
          2833.0,
          2838.0,
          2844.0,
          2850.0,
          2850.0,
          2842.0,
          2840.0,
          2839.0,
          2840.0,
          2836.0,
          2831.0,
          2832.0,
          2833.0,
          2833.0,
          2836.0,
          2841.0,
          2846.0,
          2842.0,
          2837.0,
          2840.0,
          2843.0,
          2850.0,
          2855.0,
          2850.0,
          2845.0,
          2846.0,
          2842.0,
          2841.0,
          2842.0,
          2838.0,
          2840.0,
          2841.0,
          2836.0,
          2832.0,
          2832.0,
          2834.0,
          2838.0,
          2839.0,
          2838.0,
          2841.0,
          2850.0,
          2846.0,
          2842.0,
          2838.0,
          2835.0,
          2838.0,
          2845.0,
          2844.0,
          2842.0,
          2843.0,
          2847.0,
          2849.0,
          2843.0,
          2838.0,
          2833.0,
          2839.0,
          2844.0,
          2839.0,
          2836.0,
          2835.0,
          2838.0,
          2844.0,
          2846.0,
          2844.0,
          2842.0,
          2838.0,
          2838.0,
          2845.0,
          2848.0,
          2847.0,
          2840.0,
          2832.0,
          2829.0,
          2831.0,
          2836.0,
          2841.0,
          2846.0,
          2846.0,
          2842.0,
          2839.0,
          2837.0,
          2839.0,
          2841.0,
          2842.0,
          2841.0,
          2841.0,
          2842.0,
          2841.0,
          2839.0,
          2838.0,
          2839.0,
          2841.0,
          2843.0,
          2849.0,
          2850.0,
          2849.0,
          2847.0,
          2843.0,
          2844.0,
          2847.0,
          2847.0,
          2847.0,
          2846.0,
          2843.0,
          2842.0,
          2843.0,
          2846.0,
          2844.0,
          2836.0,
          2834.0,
          2839.0,
          2838.0,
          2838.0,
          2839.0,
          2842.0,
          2842.0,
          2838.0,
          2839.0,
          2851.0,
          2851.0,
          2840.0,
          2838.0,
          2835.0,
