{
  "aor": 0.0018999390243902442,
  "aqi": 0.006403487865853659,
  "bids_meta": {
    "AcquisitionMatrixPE": 96,
    "AcquisitionNumber": 1,
    "AcquisitionTime": "19:06:16.072500",
    "BandwidthPerPixelPhaseEncode": 52.083,
    "BaseResolution": 96,
    "BodyPartExamined": "HEAD",
    "ConversionSoftware": "dcm2niix",
    "ConversionSoftwareVersion": "v1.0.20180622 GCC6.3.0",
    "DerivedVendorReportedEchoSpacing": 0.000600004,
    "DeviceSerialNumber": "18926",
    "DwellTime": 2.6e-06,
    "EchoTime": 0.025,
    "EffectiveEchoSpacing": 0.000200001,
    "FlipAngle": 50,
    "ImageOrientationPatientDICOM": [
      0.999992,
      0.00067012,
      0.00404905,
      2.11009e-10,
      0.98658,
      -0.16328
    ],
    "ImageType": [
      "ORIGINAL",
      "PRIMARY",
      "M",
      "ND",
      "ECHO",
      "00",
      "MOSAIC"
    ],
    "InPlanePhaseEncodingDirectionDICOM": "ROW",
    "InstitutionName": "NIMH",
    "InstitutionalDepartmentName": "Department",
    "MRAcquisitionType": "2D",
    "MagneticFieldStrength": 6.98,
    "Manufacturer": "Siemens",
    "ManufacturersModelName": "Investigational_Device_7T",
    "Modality": "MR",
    "ParallelReductionFactorInPlane": 3,
    "PartialFourier": 1,
    "PatientPosition": "HFS",
    "PercentPhaseFOV": 100,
    "PhaseEncodingDirection": "i",
    "PhaseEncodingSteps": 94,
    "PhaseResolution": 1,
    "PixelBandwidth": 2003,
    "ProcedureStepDescription": "UserProtocols_gonzalez",
    "ProtocolName": "NIH_EPI_2.0iso_TR2_Run07",
    "PulseSequenceDetails": "%CustomerSeq%_inati_nih_epi",
    "ReceiveCoilName": "32Ch_Head_7T",
    "ReconMatrixPE": 96,
    "RepetitionTime": 2,
    "SAR": 0.0762284,
    "ScanningSequence": "EP",
    "SequenceName": "epfid2d1_96",
    "SequenceVariant": "SK",
    "SeriesDescription": "NIH_EPI_2.0iso_TR2_Run07",
    "SeriesNumber": 11,
    "ShimSetting": [
      -50,
      191,
      798,
      1012,
      28,
      665,
      75,
      -332
    ],
    "SliceThickness": 2,
    "SliceTiming": [
      1.005,
      0,
      1.0425,
      0.0375,
      1.08,
      0.075,
      1.1175,
      0.1125,
      1.1525,
      0.15,
      1.19,
      0.1875,
      1.2275,
      0.225,
      1.265,
      0.2625,
      1.3025,
      0.2975,
      1.34,
      0.335,
      1.3775,
      0.3725,
      1.415,
      0.41,
      1.45,
      0.4475,
      1.4875,
      0.485,
      1.525,
      0.5225,
      1.5625,
      0.56,
      1.6,
      0.595,
      1.6375,
      0.6325,
      1.675,
      0.67,
      1.7125,
      0.7075,
      1.7475,
      0.745,
      1.785,
      0.7825,
      1.8225,
      0.82,
      1.86,
      0.855,
      1.8975,
      0.8925,
      1.935,
      0.93,
      1.9725,
      0.9675
    ],
    "SoftwareVersions": "syngo_MR_B17",
    "SpacingBetweenSlices": 2,
    "StationName": "FMRIFD7T",
    "TaskName": "HalfFovNoTask",
    "TotalReadoutTime": 0.0190001,
    "TxRefAmp": 315,
    "dataset": "ds001555",
    "dcmmeta_affine": [
      [
        -1.9999831914901733,
        4.2201880878778297e-10,
        0.008208253420889378,
        95.76705169677734
      ],
      [
        -0.0013402394251897931,
        1.973159670829773,
        -0.32655632495880127,
        -58.3952751159668
      ],
      [
        0.008098097518086433,
        0.32655906677246094,
        1.9731431007385254,
        -41.57032775878906
      ],
      [
        0.0,
        0.0,
        0.0,
        1.0
      ]
    ],
    "dcmmeta_reorient_transform": [
      [
        0.0,
        -1.0,
        0.0,
        95.0
      ],
      [
        1.0,
        0.0,
        0.0,
        0.0
      ],
      [
        0.0,
        0.0,
        1.0,
        0.0
      ],
      [
        0.0,
        0.0,
        0.0,
        1.0
      ]
    ],
    "dcmmeta_shape": [
      96,
      96,
      54,
      164
    ],
    "dcmmeta_slice_dim": 2,
    "dcmmeta_version": 0.6,
    "global": {
      "const": {
        "AcquisitionMatrix": [
          0,
          96,
          96,
          0
        ],
        "AngioFlag": "N",
        "BitsAllocated": 16,
        "BitsStored": 12,
        "BodyPartExamined": "HEAD",
        "Columns": 768,
        "EchoNumbers": 1,
        "EchoTime": 25.0,
        "EchoTrainLength": 1,
        "FlipAngle": 50.0,
        "HighBit": 11,
        "ImageOrientationPatient": [
          0.99999157803662,
          0.00067011969073,
          0.00404904870684,
          2.110094e-10,
          0.98657984636313,
          -0.1632795356133
        ],
        "ImagePositionPatient": [
          -767.761392775,
          -792.48687407585,
          96.455670438306
        ],
        "ImageType": [
          "ORIGINAL",
          "PRIMARY",
          "M",
          "ND",
          "ECHO_00",
          "MOSAIC"
        ],
        "ImagedNucleus": "1H",
        "ImagingFrequency": 297.205089,
        "InPlanePhaseEncodingDirection": "ROW",
        "LargestImagePixelValue": 4095,
        "MRAcquisitionType": "2D",
        "MagneticFieldStrength": 6.98,
        "Manufacturer": "SIEMENS",
        "ManufacturerModelName": "Investigational_Device_7T",
        "Modality": "MR",
        "NumberOfAverages": 1.0,
        "NumberOfPhaseEncodingSteps": 94,
        "PercentPhaseFieldOfView": 100.0,
        "PercentSampling": 100.0,
        "PerformedProcedureStepStartTime": "180252.597000",
        "PhotometricInterpretation": "MONOCHROME2",
        "PixelBandwidth": 2003.0,
        "PixelRepresentation": 0,
        "PixelSpacing": [
          2.0,
          2.0
        ],
        "PositionReferenceIndicator": "",
        "ProtocolName": "NIH_EPI_2.0iso_TR2_Run07",
        "RepetitionTime": 2000.0,
        "Rows": 768,
        "SAR": 0.07622842811543,
        "SamplesPerPixel": 1,
        "ScanningSequence": "EP",
        "SequenceName": "epfid2d1_96",
        "SequenceVariant": "SK",
        "SeriesDescription": "NIH_EPI_2.0iso_TR2_Run07",
        "SeriesNumber": 11,
        "SliceLocation": -31.084389907735,
        "SliceThickness": 2.0,
        "SmallestImagePixelValue": 0,
        "SoftwareVersions": "syngo MR B17",
        "SpacingBetweenSlices": 2.0000000184226,
        "TransmitCoilName": "32Ch_Head_7T",
        "VariableFlipAngleFlag": "N",
        "WindowCenterWidthExplanation": "Algo1",
        "dBdt": 0.0
      },
      "slices": {}
    },
    "modality": "bold",
    "run_id": 8,
    "session_id": "02",
    "subject_id": "001",
    "task_id": "HalfFovNoTask",
    "time": {
      "samples": {
        "AcquisitionNumber": [
          1,
          2,
          3,
          4,
          5,
          6,
          7,
          8,
          9,
          10,
          11,
          12,
          13,
          14,
          15,
          16,
          17,
          18,
          19,
          20,
          21,
          22,
          23,
          24,
          25,
          26,
          27,
          28,
          29,
          30,
          31,
          32,
          33,
          34,
          35,
          36,
          37,
          38,
          39,
          40,
          41,
          42,
          43,
          44,
          45,
          46,
          47,
          48,
          49,
          50,
          51,
          52,
          53,
          54,
          55,
          56,
          57,
          58,
          59,
          60,
          61,
          62,
          63,
          64,
          65,
          66,
          67,
          68,
          69,
          70,
          71,
          72,
          73,
          74,
          75,
          76,
          77,
          78,
          79,
          80,
          81,
          82,
          83,
          84,
          85,
          86,
          87,
          88,
          89,
          90,
          91,
          92,
          93,
          94,
          95,
          96,
          97,
          98,
          99,
          100,
          101,
          102,
          103,
          104,
          105,
          106,
          107,
          108,
          109,
          110,
          111,
          112,
          113,
          114,
          115,
          116,
          117,
          118,
          119,
          120,
          121,
          122,
          123,
          124,
          125,
          126,
          127,
          128,
          129,
          130,
          131,
          132,
          133,
          134,
          135,
          136,
          137,
          138,
          139,
          140,
          141,
          142,
          143,
          144,
          145,
          146,
          147,
          148,
          149,
          150,
          151,
          152,
          153,
          154,
          155,
          156,
          157,
          158,
          159,
          160,
          161,
          162,
          163,
          164
        ],
        "AcquisitionTime": [
          "190616.072500",
          "190620.087500",
          "190622.097500",
          "190624.105000",
          "190626.112500",
          "190628.120000",
          "190630.127500",
          "190632.137500",
          "190634.145000",
          "190636.152500",
          "190638.160000",
          "190640.170000",
          "190642.177500",
          "190644.185000",
          "190646.192500",
          "190648.200000",
          "190650.210000",
          "190652.217500",
          "190654.225000",
          "190656.232500",
          "190658.240000",
          "190700.250000",
          "190702.257500",
          "190704.265000",
          "190706.272500",
          "190708.280000",
          "190710.290000",
          "190712.297500",
          "190714.305000",
          "190716.312500",
          "190718.322500",
          "190720.330000",
          "190722.337500",
          "190724.345000",
          "190726.352500",
          "190728.362500",
          "190730.370000",
          "190732.377500",
          "190734.385000",
          "190736.392500",
          "190738.402500",
          "190740.410000",
          "190742.417500",
          "190744.425000",
          "190746.435000",
          "190748.442500",
          "190750.450000",
          "190752.457500",
          "190754.465000",
          "190756.475000",
          "190758.482500",
          "190800.490000",
          "190802.497500",
          "190804.505000",
          "190806.515000",
          "190808.522500",
          "190810.530000",
          "190812.537500",
          "190814.547500",
          "190816.555000",
          "190818.562500",
          "190820.570000",
          "190822.577500",
          "190824.587500",
          "190826.595000",
          "190828.602500",
          "190830.610000",
          "190832.617500",
          "190834.627500",
          "190836.635000",
          "190838.642500",
          "190840.650000",
          "190842.660000",
          "190844.667500",
          "190846.675000",
          "190848.682500",
          "190850.690000",
          "190852.700000",
          "190854.707500",
          "190856.715000",
          "190858.722500",
          "190900.730000",
          "190902.740000",
          "190904.747500",
          "190906.755000",
          "190908.762500",
          "190910.770000",
          "190912.780000",
          "190914.787500",
          "190916.795000",
          "190918.802500",
          "190920.812500",
          "190922.820000",
          "190924.827500",
          "190926.835000",
          "190928.842500",
          "190930.852500",
          "190932.860000",
          "190934.867500",
          "190936.875000",
          "190938.882500",
          "190940.892500",
          "190942.900000",
          "190944.907500",
          "190946.915000",
          "190948.925000",
          "190950.932500",
          "190952.940000",
          "190954.947500",
          "190956.955000",
          "190958.965000",
          "191000.972500",
          "191002.980000",
          "191004.987500",
          "191006.995000",
          "191009.005000",
          "191011.012500",
          "191013.020000",
          "191015.027500",
          "191017.037500",
          "191019.045000",
          "191021.052500",
          "191023.060000",
          "191025.067500",
          "191027.077500",
          "191029.085000",
          "191031.092500",
          "191033.100000",
          "191035.107500",
          "191037.117500",
          "191039.125000",
          "191041.132500",
          "191043.140000",
          "191045.147500",
          "191047.157500",
          "191049.165000",
          "191051.172500",
          "191053.180000",
          "191055.190000",
          "191057.197500",
          "191059.205000",
          "191101.212500",
          "191103.220000",
          "191105.230000",
          "191107.237500",
          "191109.245000",
          "191111.252500",
          "191113.260000",
          "191115.270000",
          "191117.277500",
          "191119.285000",
          "191121.292500",
          "191123.302500",
          "191125.310000",
          "191127.317500",
          "191129.325000",
          "191131.332500",
          "191133.342500",
          "191135.350000",
          "191137.357500",
          "191139.365000",
          "191141.372500",
          "191143.382500",
          "191145.390000"
        ],
        "ContentTime": [
          "190711.707000",
          "190711.722000",
          "190711.738000",
          "190711.738000",
          "190711.738000",
          "190711.738000",
          "190711.738000",
          "190711.754000",
          "190711.754000",
          "190711.754000",
          "190711.754000",
          "190711.754000",
          "190711.754000",
          "190711.754000",
          "190711.769000",
          "190711.769000",
          "190711.769000",
          "190711.769000",
          "190711.769000",
          "190711.769000",
          "190711.785000",
          "190711.785000",
          "190711.785000",
          "190711.785000",
          "190711.785000",
          "190711.785000",
          "190751.707000",
          "190751.707000",
          "190751.707000",
          "190751.707000",
          "190751.707000",
          "190751.722000",
          "190751.722000",
          "190751.722000",
          "190751.722000",
          "190751.722000",
          "190751.738000",
          "190751.738000",
          "190751.738000",
          "190751.738000",
          "190751.738000",
          "190751.754000",
          "190751.754000",
          "190751.754000",
          "190751.754000",
          "190751.754000",
          "190831.707000",
          "190831.707000",
          "190831.722000",
          "190831.722000",
          "190831.722000",
          "190831.722000",
          "190831.738000",
          "190831.738000",
          "190831.738000",
          "190831.738000",
          "190831.738000",
          "190831.738000",
          "190831.738000",
          "190831.754000",
          "190831.754000",
          "190831.754000",
          "190831.754000",
          "190831.754000",
          "190831.769000",
          "190831.769000",
          "190911.707000",
          "190911.707000",
          "190911.707000",
          "190911.707000",
          "190911.707000",
          "190911.722000",
          "190911.722000",
          "190911.722000",
          "190911.738000",
          "190911.738000",
          "190911.738000",
          "190911.738000",
          "190911.738000",
          "190911.738000",
          "190911.738000",
          "190911.754000",
          "190911.754000",
          "190911.754000",
          "190911.754000",
          "190911.754000",
          "190951.707000",
          "190951.707000",
          "190951.707000",
          "190951.707000",
          "190951.707000",
          "190951.722000",
          "190951.722000",
          "190951.722000",
          "190951.722000",
          "190951.738000",
          "190951.738000",
          "190951.738000",
          "190951.738000",
          "190951.738000",
          "190951.738000",
          "190951.754000",
          "190951.754000",
          "190951.754000",
          "190951.754000",
          "190951.754000",
          "191031.707000",
          "191031.722000",
          "191031.722000",
          "191031.722000",
          "191031.738000",
          "191031.738000",
          "191031.754000",
          "191031.754000",
          "191031.754000",
          "191031.754000",
          "191031.754000",
          "191031.754000",
          "191031.769000",
          "191031.769000",
          "191031.769000",
          "191031.769000",
          "191031.769000",
          "191031.769000",
          "191031.785000",
          "191031.785000",
          "191111.707000",
          "191111.707000",
          "191111.707000",
          "191111.707000",
          "191111.722000",
          "191111.722000",
          "191111.722000",
          "191111.722000",
          "191111.722000",
          "191111.722000",
          "191111.722000",
          "191111.738000",
          "191111.738000",
          "191111.738000",
          "191111.754000",
          "191111.754000",
          "191111.754000",
          "191111.754000",
          "191111.754000",
          "191111.754000",
          "191146.472000",
          "191146.472000",
          "191146.488000",
          "191146.488000",
          "191146.488000",
          "191146.488000",
          "191146.488000",
          "191146.504000",
          "191146.504000",
          "191146.504000",
          "191146.504000",
          "191146.504000",
          "191146.519000",
          "191146.519000",
          "191146.519000",
          "191146.519000",
          "191146.519000",
          "191146.535000"
        ],
        "InstanceCreationTime": [
          "190711.707000",
          "190711.722000",
          "190711.738000",
          "190711.738000",
          "190711.738000",
          "190711.738000",
          "190711.738000",
          "190711.754000",
          "190711.754000",
          "190711.754000",
          "190711.754000",
          "190711.754000",
          "190711.754000",
          "190711.754000",
          "190711.769000",
          "190711.769000",
          "190711.769000",
          "190711.769000",
          "190711.769000",
          "190711.769000",
          "190711.785000",
          "190711.785000",
          "190711.785000",
          "190711.785000",
          "190711.785000",
          "190711.785000",
          "190751.707000",
          "190751.707000",
          "190751.707000",
          "190751.707000",
          "190751.707000",
          "190751.722000",
          "190751.722000",
          "190751.722000",
          "190751.722000",
          "190751.722000",
          "190751.738000",
          "190751.738000",
          "190751.738000",
          "190751.738000",
          "190751.738000",
          "190751.754000",
          "190751.754000",
          "190751.754000",
          "190751.754000",
          "190751.754000",
          "190831.707000",
          "190831.707000",
          "190831.722000",
          "190831.722000",
          "190831.722000",
          "190831.722000",
          "190831.738000",
          "190831.738000",
          "190831.738000",
          "190831.738000",
          "190831.738000",
          "190831.738000",
          "190831.738000",
          "190831.754000",
          "190831.754000",
          "190831.754000",
          "190831.754000",
          "190831.754000",
          "190831.769000",
          "190831.769000",
          "190911.707000",
          "190911.707000",
          "190911.707000",
          "190911.707000",
          "190911.707000",
          "190911.722000",
          "190911.722000",
          "190911.722000",
          "190911.738000",
          "190911.738000",
          "190911.738000",
          "190911.738000",
          "190911.738000",
          "190911.738000",
          "190911.738000",
          "190911.754000",
          "190911.754000",
          "190911.754000",
          "190911.754000",
          "190911.754000",
          "190951.707000",
          "190951.707000",
          "190951.707000",
          "190951.707000",
          "190951.707000",
          "190951.722000",
          "190951.722000",
          "190951.722000",
          "190951.722000",
          "190951.738000",
          "190951.738000",
          "190951.738000",
          "190951.738000",
          "190951.738000",
          "190951.738000",
          "190951.754000",
          "190951.754000",
          "190951.754000",
          "190951.754000",
          "190951.754000",
          "191031.707000",
          "191031.722000",
          "191031.722000",
          "191031.722000",
          "191031.738000",
          "191031.738000",
          "191031.754000",
          "191031.754000",
          "191031.754000",
          "191031.754000",
          "191031.754000",
          "191031.754000",
          "191031.769000",
          "191031.769000",
          "191031.769000",
          "191031.769000",
          "191031.769000",
          "191031.769000",
          "191031.785000",
          "191031.785000",
          "191111.707000",
          "191111.707000",
          "191111.707000",
          "191111.707000",
          "191111.722000",
          "191111.722000",
          "191111.722000",
          "191111.722000",
          "191111.722000",
          "191111.722000",
          "191111.722000",
          "191111.738000",
          "191111.738000",
          "191111.738000",
          "191111.754000",
          "191111.754000",
          "191111.754000",
          "191111.754000",
          "191111.754000",
          "191111.754000",
          "191146.472000",
          "191146.472000",
          "191146.488000",
          "191146.488000",
          "191146.488000",
          "191146.488000",
          "191146.488000",
          "191146.504000",
          "191146.504000",
          "191146.504000",
          "191146.504000",
          "191146.504000",
          "191146.519000",
          "191146.519000",
          "191146.519000",
          "191146.519000",
          "191146.519000",
          "191146.535000"
        ],
        "InstanceNumber": [
          1,
          2,
          3,
          4,
          5,
          6,
          7,
          8,
          9,
          10,
          11,
          12,
          13,
          14,
          15,
          16,
          17,
          18,
          19,
          20,
          21,
          22,
          23,
          24,
          25,
          26,
          27,
          28,
          29,
          30,
          31,
          32,
          33,
          34,
          35,
          36,
          37,
          38,
          39,
          40,
          41,
          42,
          43,
          44,
          45,
          46,
          47,
          48,
          49,
          50,
          51,
          52,
          53,
          54,
          55,
          56,
          57,
          58,
          59,
          60,
          61,
          62,
          63,
          64,
          65,
          66,
          67,
          68,
          69,
          70,
          71,
          72,
          73,
          74,
          75,
          76,
          77,
          78,
          79,
          80,
          81,
          82,
          83,
          84,
          85,
          86,
          87,
          88,
          89,
          90,
          91,
          92,
          93,
          94,
          95,
          96,
          97,
          98,
          99,
          100,
          101,
          102,
          103,
          104,
          105,
          106,
          107,
          108,
          109,
          110,
          111,
          112,
          113,
          114,
          115,
          116,
          117,
          118,
          119,
          120,
          121,
          122,
          123,
          124,
          125,
          126,
          127,
          128,
          129,
          130,
          131,
          132,
          133,
          134,
          135,
          136,
          137,
          138,
          139,
          140,
          141,
          142,
          143,
          144,
          145,
          146,
          147,
          148,
          149,
          150,
          151,
          152,
          153,
          154,
          155,
          156,
          157,
          158,
          159,
          160,
          161,
          162,
          163,
          164
        ],
        "WindowCenter": [
          1178.0,
          1179.0,
          1180.0,
          1181.0,
          1179.0,
          1177.0,
          1177.0,
          1179.0,
          1181.0,
          1181.0,
          1179.0,
          1179.0,
          1179.0,
          1179.0,
          1180.0,
          1182.0,
          1182.0,
          1182.0,
          1180.0,
          1181.0,
          1182.0,
          1183.0,
          1183.0,
          1182.0,
          1181.0,
          1184.0,
          1185.0,
          1184.0,
          1182.0,
          1180.0,
          1180.0,
          1181.0,
          1182.0,
          1181.0,
          1178.0,
          1177.0,
          1175.0,
          1176.0,
          1179.0,
          1181.0,
          1184.0,
          1183.0,
          1182.0,
          1181.0,
          1181.0,
          1182.0,
          1182.0,
          1180.0,
          1179.0,
          1180.0,
          1179.0,
          1179.0,
          1179.0,
          1178.0,
          1179.0,
          1180.0,
          1180.0,
          1181.0,
          1181.0,
          1180.0,
          1180.0,
          1181.0,
          1180.0,
          1179.0,
          1175.0,
          1173.0,
          1172.0,
          1173.0,
          1174.0,
          1177.0,
          1180.0,
          1182.0,
          1183.0,
          1183.0,
          1180.0,
          1178.0,
          1179.0,
          1181.0,
          1182.0,
          1181.0,
          1182.0,
          1181.0,
          1177.0,
          1177.0,
          1177.0,
          1179.0,
          1177.0,
          1180.0,
          1182.0,
          1182.0,
          1181.0,
          1179.0,
          1178.0,
          1177.0,
          1177.0,
          1178.0,
          1178.0,
          1182.0,
          1183.0,
          1183.0,
          1182.0,
          1178.0,
          1179.0,
          1180.0,
          1176.0,
          1178.0,
          1177.0,
          1177.0,
          1176.0,
          1173.0,
          1173.0,
          1175.0,
          1175.0,
          1176.0,
          1176.0,
          1174.0,
          1175.0,
          1177.0,
          1177.0,
          1177.0,
          1177.0,
          1175.0,
          1177.0,
          1178.0,
          1179.0,
          1179.0,
          1175.0,
          1174.0,
          1174.0,
          1175.0,
          1176.0,
          1174.0,
          1173.0,
          1173.0,
          1174.0,
          1175.0,
          1175.0,
          1177.0,
          1176.0,
          1177.0,
          1177.0,
          1176.0,
          1177.0,
          1178.0,
          1177.0,
          1176.0,
          1176.0,
          1178.0,
          1178.0,
          1178.0,
          1178.0,
          1178.0,
          1179.0,
          1179.0,
          1178.0,
          1179.0,
          1179.0,
          1178.0,
          1178.0,
          1179.0,
          1178.0,
          1179.0,
          1179.0,
          1178.0
        ],
        "WindowWidth": [
          2842.0,
          2846.0,
          2849.0,
          2849.0,
          2844.0,
          2841.0,
          2845.0,
          2851.0,
          2853.0,
          2850.0,
          2847.0,
          2848.0,
          2846.0,
          2845.0,
          2849.0,
          2851.0,
          2852.0,
          2849.0,
          2849.0,
          2850.0,
          2852.0,
          2854.0,
          2853.0,
          2850.0,
          2851.0,
          2857.0,
          2863.0,
          2859.0,
          2850.0,
          2846.0,
          2849.0,
          2853.0,
          2855.0,
          2851.0,
          2840.0,
          2842.0,
          2834.0,
          2838.0,
          2844.0,
          2851.0,
          2860.0,
          2857.0,
          2852.0,
          2852.0,
          2853.0,
          2854.0,
          2852.0,
          2848.0,
          2846.0,
          2848.0,
          2848.0,
          2845.0,
          2845.0,
          2844.0,
          2847.0,
          2851.0,
          2847.0,
          2847.0,
          2850.0,
          2848.0,
          2853.0,
          2853.0,
          2847.0,
          2840.0,
          2831.0,
          2827.0,
          2826.0,
          2830.0,
          2834.0,
          2842.0,
          2849.0,
          2858.0,
          2863.0,
          2859.0,
          2849.0,
          2847.0,
          2849.0,
          2853.0,
          2855.0,
          2851.0,
          2855.0,
          2850.0,
          2842.0,
          2843.0,
          2846.0,
          2849.0,
          2847.0,
          2853.0,
          2855.0,
          2853.0,
          2852.0,
          2853.0,
          2847.0,
          2849.0,
          2844.0,
          2847.0,
          2850.0,
          2859.0,
          2863.0,
          2859.0,
          2856.0,
          2850.0,
          2850.0,
          2850.0,
          2843.0,
          2846.0,
          2845.0,
          2842.0,
          2837.0,
          2829.0,
          2832.0,
          2836.0,
          2838.0,
          2839.0,
          2835.0,
          2835.0,
          2836.0,
          2840.0,
          2841.0,
          2841.0,
          2843.0,
          2840.0,
          2844.0,
          2850.0,
          2853.0,
          2850.0,
          2840.0,
          2837.0,
          2840.0,
