{
  "aor": 0.0011841463414634145,
  "aqi": 0.004780696585365854,
  "bids_meta": {
    "AcquisitionMatrixPE": 96,
    "AcquisitionNumber": 1,
    "AcquisitionTime": "18:45:25.152500",
    "BandwidthPerPixelPhaseEncode": 52.083,
    "BaseResolution": 96,
    "BodyPartExamined": "HEAD",
    "ConversionSoftware": "dcm2niix",
    "ConversionSoftwareVersion": "v1.0.20180622 GCC6.3.0",
    "DerivedVendorReportedEchoSpacing": 0.000600004,
    "DeviceSerialNumber": "18926",
    "DwellTime": 2.6e-06,
    "EchoTime": 0.025,
    "EffectiveEchoSpacing": 0.000200001,
    "FlipAngle": 50,
    "ImageOrientationPatientDICOM": [
      0.999992,
      0.00067012,
      0.00404905,
      2.11009e-10,
      0.98658,
      -0.16328
    ],
    "ImageType": [
      "ORIGINAL",
      "PRIMARY",
      "M",
      "ND",
      "ECHO",
      "00",
      "MOSAIC"
    ],
    "InPlanePhaseEncodingDirectionDICOM": "ROW",
    "InstitutionName": "NIMH",
    "InstitutionalDepartmentName": "Department",
    "MRAcquisitionType": "2D",
    "MagneticFieldStrength": 6.98,
    "Manufacturer": "Siemens",
    "ManufacturersModelName": "Investigational_Device_7T",
    "Modality": "MR",
    "ParallelReductionFactorInPlane": 3,
    "PartialFourier": 1,
    "PatientPosition": "HFS",
    "PercentPhaseFOV": 100,
    "PhaseEncodingDirection": "i",
    "PhaseEncodingSteps": 94,
    "PhaseResolution": 1,
    "PixelBandwidth": 2003,
    "ProcedureStepDescription": "UserProtocols_gonzalez",
    "ProtocolName": "NIH_EPI_2.0iso_TR2_Run04",
    "PulseSequenceDetails": "%CustomerSeq%_inati_nih_epi",
    "ReceiveCoilName": "32Ch_Head_7T",
    "ReconMatrixPE": 96,
    "RepetitionTime": 2,
    "SAR": 0.0762284,
    "ScanningSequence": "EP",
    "SequenceName": "epfid2d1_96",
    "SequenceVariant": "SK",
    "SeriesDescription": "NIH_EPI_2.0iso_TR2_Run04",
    "SeriesNumber": 8,
    "ShimSetting": [
      -50,
      191,
      798,
      1012,
      28,
      665,
      75,
      -332
    ],
    "SliceThickness": 2,
    "SliceTiming": [
      1.005,
      0,
      1.0425,
      0.0375,
      1.08,
      0.075,
      1.1175,
      0.1125,
      1.1525,
      0.15,
      1.19,
      0.1875,
      1.2275,
      0.225,
      1.265,
      0.26,
      1.3025,
      0.2975,
      1.34,
      0.335,
      1.3775,
      0.3725,
      1.4125,
      0.41,
      1.45,
      0.4475,
      1.4875,
      0.485,
      1.525,
      0.5225,
      1.5625,
      0.5575,
      1.6,
      0.595,
      1.6375,
      0.6325,
      1.675,
      0.67,
      1.71,
      0.7075,
      1.7475,
      0.745,
      1.785,
      0.7825,
      1.8225,
      0.82,
      1.86,
      0.855,
      1.8975,
      0.8925,
      1.935,
      0.93,
      1.9725,
      0.9675
    ],
    "SoftwareVersions": "syngo_MR_B17",
    "SpacingBetweenSlices": 2,
    "StationName": "FMRIFD7T",
    "TaskName": "HalfFovNoTask",
    "TotalReadoutTime": 0.0190001,
    "TxRefAmp": 315,
    "dataset": "ds001555",
    "dcmmeta_affine": [
      [
        -1.9999831914901733,
        4.2201880878778297e-10,
        0.008208253420889378,
        95.76705169677734
      ],
      [
        -0.0013402394251897931,
        1.973159670829773,
        -0.32655632495880127,
        -58.3952751159668
      ],
      [
        0.008098097518086433,
        0.32655906677246094,
        1.9731431007385254,
        -41.57032775878906
      ],
      [
        0.0,
        0.0,
        0.0,
        1.0
      ]
    ],
    "dcmmeta_reorient_transform": [
      [
        0.0,
        -1.0,
        0.0,
        95.0
      ],
      [
        1.0,
        0.0,
        0.0,
        0.0
      ],
      [
        0.0,
        0.0,
        1.0,
        0.0
      ],
      [
        0.0,
        0.0,
        0.0,
        1.0
      ]
    ],
    "dcmmeta_shape": [
      96,
      96,
      54,
      164
    ],
    "dcmmeta_slice_dim": 2,
    "dcmmeta_version": 0.6,
    "global": {
      "const": {
        "AcquisitionMatrix": [
          0,
          96,
          96,
          0
        ],
        "AngioFlag": "N",
        "BitsAllocated": 16,
        "BitsStored": 12,
        "BodyPartExamined": "HEAD",
        "Columns": 768,
        "EchoNumbers": 1,
        "EchoTime": 25.0,
        "EchoTrainLength": 1,
        "FlipAngle": 50.0,
        "HighBit": 11,
        "ImageOrientationPatient": [
          0.99999157803662,
          0.00067011969073,
          0.00404904870684,
          2.110094e-10,
          0.98657984636313,
          -0.1632795356133
        ],
        "ImagePositionPatient": [
          -767.761392775,
          -792.48687407585,
          96.455670438306
        ],
        "ImageType": [
          "ORIGINAL",
          "PRIMARY",
          "M",
          "ND",
          "ECHO_00",
          "MOSAIC"
        ],
        "ImagedNucleus": "1H",
        "ImagingFrequency": 297.205012,
        "InPlanePhaseEncodingDirection": "ROW",
        "LargestImagePixelValue": 4095,
        "MRAcquisitionType": "2D",
        "MagneticFieldStrength": 6.98,
        "Manufacturer": "SIEMENS",
        "ManufacturerModelName": "Investigational_Device_7T",
        "Modality": "MR",
        "NumberOfAverages": 1.0,
        "NumberOfPhaseEncodingSteps": 94,
        "PercentPhaseFieldOfView": 100.0,
        "PercentSampling": 100.0,
        "PerformedProcedureStepStartTime": "180252.597000",
        "PhotometricInterpretation": "MONOCHROME2",
        "PixelBandwidth": 2003.0,
        "PixelRepresentation": 0,
        "PixelSpacing": [
          2.0,
          2.0
        ],
        "PositionReferenceIndicator": "",
        "ProtocolName": "NIH_EPI_2.0iso_TR2_Run04",
        "RepetitionTime": 2000.0,
        "Rows": 768,
        "SAR": 0.07622842811543,
        "SamplesPerPixel": 1,
        "ScanningSequence": "EP",
        "SequenceName": "epfid2d1_96",
        "SequenceVariant": "SK",
        "SeriesDescription": "NIH_EPI_2.0iso_TR2_Run04",
        "SeriesNumber": 8,
        "SliceLocation": -31.084389907735,
        "SliceThickness": 2.0,
        "SmallestImagePixelValue": 0,
        "SoftwareVersions": "syngo MR B17",
        "SpacingBetweenSlices": 2.0000000184226,
        "TransmitCoilName": "32Ch_Head_7T",
        "VariableFlipAngleFlag": "N",
        "WindowCenterWidthExplanation": "Algo1",
        "dBdt": 0.0
      },
      "slices": {}
    },
    "modality": "bold",
    "run_id": 5,
    "session_id": "02",
    "subject_id": "001",
    "task_id": "HalfFovNoTask",
    "time": {
      "samples": {
        "AcquisitionNumber": [
          1,
          2,
          3,
          4,
          5,
          6,
          7,
          8,
          9,
          10,
          11,
          12,
          13,
          14,
          15,
          16,
          17,
          18,
          19,
          20,
          21,
          22,
          23,
          24,
          25,
          26,
          27,
          28,
          29,
          30,
          31,
          32,
          33,
          34,
          35,
          36,
          37,
          38,
          39,
          40,
          41,
          42,
          43,
          44,
          45,
          46,
          47,
          48,
          49,
          50,
          51,
          52,
          53,
          54,
          55,
          56,
          57,
          58,
          59,
          60,
          61,
          62,
          63,
          64,
          65,
          66,
          67,
          68,
          69,
          70,
          71,
          72,
          73,
          74,
          75,
          76,
          77,
          78,
          79,
          80,
          81,
          82,
          83,
          84,
          85,
          86,
          87,
          88,
          89,
          90,
          91,
          92,
          93,
          94,
          95,
          96,
          97,
          98,
          99,
          100,
          101,
          102,
          103,
          104,
          105,
          106,
          107,
          108,
          109,
          110,
          111,
          112,
          113,
          114,
          115,
          116,
          117,
          118,
          119,
          120,
          121,
          122,
          123,
          124,
          125,
          126,
          127,
          128,
          129,
          130,
          131,
          132,
          133,
          134,
          135,
          136,
          137,
          138,
          139,
          140,
          141,
          142,
          143,
          144,
          145,
          146,
          147,
          148,
          149,
          150,
          151,
          152,
          153,
          154,
          155,
          156,
          157,
          158,
          159,
          160,
          161,
          162,
          163,
          164
        ],
        "AcquisitionTime": [
          "184525.152500",
          "184529.167500",
          "184531.177500",
          "184533.185000",
          "184535.192500",
          "184537.200000",
          "184539.207500",
          "184541.217500",
          "184543.225000",
          "184545.232500",
          "184547.240000",
          "184549.247500",
          "184551.257500",
          "184553.265000",
          "184555.272500",
          "184557.280000",
          "184559.290000",
          "184601.297500",
          "184603.305000",
          "184605.312500",
          "184607.320000",
          "184609.330000",
          "184611.337500",
          "184613.345000",
          "184615.352500",
          "184617.360000",
          "184619.370000",
          "184621.377500",
          "184623.385000",
          "184625.392500",
          "184627.402500",
          "184629.410000",
          "184631.417500",
          "184633.425000",
          "184635.432500",
          "184637.442500",
          "184639.450000",
          "184641.457500",
          "184643.465000",
          "184645.472500",
          "184647.482500",
          "184649.490000",
          "184651.497500",
          "184653.505000",
          "184655.512500",
          "184657.522500",
          "184659.530000",
          "184701.537500",
          "184703.545000",
          "184705.555000",
          "184707.562500",
          "184709.570000",
          "184711.577500",
          "184713.585000",
          "184715.595000",
          "184717.602500",
          "184719.610000",
          "184721.617500",
          "184723.625000",
          "184725.635000",
          "184727.642500",
          "184729.650000",
          "184731.657500",
          "184733.667500",
          "184735.675000",
          "184737.682500",
          "184739.690000",
          "184741.697500",
          "184743.707500",
          "184745.715000",
          "184747.722500",
          "184749.730000",
          "184751.737500",
          "184753.747500",
          "184755.755000",
          "184757.762500",
          "184759.770000",
          "184801.780000",
          "184803.787500",
          "184805.795000",
          "184807.802500",
          "184809.810000",
          "184811.820000",
          "184813.827500",
          "184815.835000",
          "184817.842500",
          "184819.850000",
          "184821.860000",
          "184823.867500",
          "184825.875000",
          "184827.882500",
          "184829.890000",
          "184831.900000",
          "184833.907500",
          "184835.915000",
          "184837.922500",
          "184839.932500",
          "184841.940000",
          "184843.947500",
          "184845.955000",
          "184847.962500",
          "184849.972500",
          "184851.980000",
          "184853.987500",
          "184855.995000",
          "184858.002500",
          "184900.012500",
          "184902.020000",
          "184904.027500",
          "184906.035000",
          "184908.045000",
          "184910.052500",
          "184912.060000",
          "184914.067500",
          "184916.075000",
          "184918.085000",
          "184920.092500",
          "184922.100000",
          "184924.107500",
          "184926.115000",
          "184928.125000",
          "184930.132500",
          "184932.140000",
          "184934.147500",
          "184936.157500",
          "184938.165000",
          "184940.172500",
          "184942.180000",
          "184944.187500",
          "184946.197500",
          "184948.205000",
          "184950.212500",
          "184952.220000",
          "184954.227500",
          "184956.237500",
          "184958.245000",
          "185000.252500",
          "185002.260000",
          "185004.267500",
          "185006.277500",
          "185008.285000",
          "185010.292500",
          "185012.300000",
          "185014.310000",
          "185016.317500",
          "185018.325000",
          "185020.332500",
          "185022.340000",
          "185024.350000",
          "185026.357500",
          "185028.365000",
          "185030.372500",
          "185032.380000",
          "185034.390000",
          "185036.397500",
          "185038.405000",
          "185040.412500",
          "185042.422500",
          "185044.430000",
          "185046.437500",
          "185048.445000",
          "185050.452500",
          "185052.462500",
          "185054.470000"
        ],
        "ContentTime": [
          "184611.722000",
          "184611.722000",
          "184611.722000",
          "184611.722000",
          "184611.738000",
          "184611.738000",
          "184611.738000",
          "184611.738000",
          "184611.738000",
          "184611.738000",
          "184611.738000",
          "184611.754000",
          "184611.754000",
          "184611.754000",
          "184611.754000",
          "184611.754000",
          "184611.754000",
          "184611.754000",
          "184611.769000",
          "184611.769000",
          "184611.769000",
          "184611.769000",
          "184651.707000",
          "184651.707000",
          "184651.722000",
          "184651.722000",
          "184651.722000",
          "184651.722000",
          "184651.722000",
          "184651.722000",
          "184651.738000",
          "184651.738000",
          "184651.738000",
          "184651.738000",
          "184651.754000",
          "184651.754000",
          "184651.754000",
          "184651.754000",
          "184651.754000",
          "184651.754000",
          "184651.754000",
          "184651.769000",
          "184731.707000",
          "184731.707000",
          "184731.722000",
          "184731.722000",
          "184731.722000",
          "184731.722000",
          "184731.722000",
          "184731.722000",
          "184731.738000",
          "184731.738000",
          "184731.738000",
          "184731.738000",
          "184731.738000",
          "184731.738000",
          "184731.738000",
          "184731.754000",
          "184731.754000",
          "184731.754000",
          "184731.754000",
          "184731.754000",
          "184811.707000",
          "184811.707000",
          "184811.722000",
          "184811.722000",
          "184811.722000",
          "184811.722000",
          "184811.722000",
          "184811.722000",
          "184811.738000",
          "184811.738000",
          "184811.738000",
          "184811.738000",
          "184811.738000",
          "184811.738000",
          "184811.738000",
          "184811.754000",
          "184811.754000",
          "184811.754000",
          "184811.754000",
          "184811.769000",
          "184851.707000",
          "184851.707000",
          "184851.722000",
          "184851.722000",
          "184851.722000",
          "184851.722000",
          "184851.722000",
          "184851.722000",
          "184851.738000",
          "184851.738000",
          "184851.738000",
          "184851.738000",
          "184851.738000",
          "184851.738000",
          "184851.754000",
          "184851.754000",
          "184851.754000",
          "184851.754000",
          "184851.754000",
          "184851.754000",
          "184931.707000",
          "184931.707000",
          "184931.722000",
          "184931.722000",
          "184931.722000",
          "184931.722000",
          "184931.722000",
          "184931.722000",
          "184931.738000",
          "184931.738000",
          "184931.738000",
          "184931.738000",
          "184931.754000",
          "184931.754000",
          "184931.754000",
          "184931.769000",
          "184931.769000",
          "184931.769000",
          "184931.769000",
          "184931.769000",
          "185011.707000",
          "185011.707000",
          "185011.722000",
          "185011.722000",
          "185011.722000",
          "185011.722000",
          "185011.738000",
          "185011.738000",
          "185011.738000",
          "185011.738000",
          "185011.738000",
          "185011.738000",
          "185011.754000",
          "185011.754000",
          "185011.754000",
          "185011.754000",
          "185011.754000",
          "185011.754000",
          "185011.754000",
          "185011.769000",
          "185051.707000",
          "185051.707000",
          "185051.722000",
          "185051.722000",
          "185051.722000",
          "185051.722000",
          "185051.722000",
          "185051.722000",
          "185051.738000",
          "185051.738000",
          "185051.738000",
          "185051.738000",
          "185051.738000",
          "185051.738000",
          "185051.738000",
          "185051.754000",
          "185051.754000",
          "185051.754000",
          "185051.754000",
          "185051.754000",
          "185055.582000",
          "185055.582000"
        ],
        "InstanceCreationTime": [
          "184611.722000",
          "184611.722000",
          "184611.722000",
          "184611.722000",
          "184611.738000",
          "184611.738000",
          "184611.738000",
          "184611.738000",
          "184611.738000",
          "184611.738000",
          "184611.738000",
          "184611.754000",
          "184611.754000",
          "184611.754000",
          "184611.754000",
          "184611.754000",
          "184611.754000",
          "184611.754000",
          "184611.769000",
          "184611.769000",
          "184611.769000",
          "184611.769000",
          "184651.707000",
          "184651.707000",
          "184651.722000",
          "184651.722000",
          "184651.722000",
          "184651.722000",
          "184651.722000",
          "184651.722000",
          "184651.738000",
          "184651.738000",
          "184651.738000",
          "184651.738000",
          "184651.754000",
          "184651.754000",
          "184651.754000",
          "184651.754000",
          "184651.754000",
          "184651.754000",
          "184651.754000",
          "184651.769000",
          "184731.707000",
          "184731.707000",
          "184731.722000",
          "184731.722000",
          "184731.722000",
          "184731.722000",
          "184731.722000",
          "184731.722000",
          "184731.738000",
          "184731.738000",
          "184731.738000",
          "184731.738000",
          "184731.738000",
          "184731.738000",
          "184731.738000",
          "184731.754000",
          "184731.754000",
          "184731.754000",
          "184731.754000",
          "184731.754000",
          "184811.707000",
          "184811.707000",
          "184811.722000",
          "184811.722000",
          "184811.722000",
          "184811.722000",
          "184811.722000",
          "184811.722000",
          "184811.738000",
          "184811.738000",
          "184811.738000",
          "184811.738000",
          "184811.738000",
          "184811.738000",
          "184811.738000",
          "184811.754000",
          "184811.754000",
          "184811.754000",
          "184811.754000",
          "184811.769000",
          "184851.707000",
          "184851.707000",
          "184851.722000",
          "184851.722000",
          "184851.722000",
          "184851.722000",
          "184851.722000",
          "184851.722000",
          "184851.738000",
          "184851.738000",
          "184851.738000",
          "184851.738000",
          "184851.738000",
          "184851.738000",
          "184851.754000",
          "184851.754000",
          "184851.754000",
          "184851.754000",
          "184851.754000",
          "184851.754000",
          "184931.707000",
          "184931.707000",
          "184931.722000",
          "184931.722000",
          "184931.722000",
          "184931.722000",
          "184931.722000",
          "184931.722000",
          "184931.738000",
          "184931.738000",
          "184931.738000",
          "184931.738000",
          "184931.754000",
          "184931.754000",
          "184931.754000",
          "184931.769000",
          "184931.769000",
          "184931.769000",
          "184931.769000",
          "184931.769000",
          "185011.707000",
          "185011.707000",
          "185011.722000",
          "185011.722000",
          "185011.722000",
          "185011.722000",
          "185011.738000",
          "185011.738000",
          "185011.738000",
          "185011.738000",
          "185011.738000",
          "185011.738000",
          "185011.754000",
          "185011.754000",
          "185011.754000",
          "185011.754000",
          "185011.754000",
          "185011.754000",
          "185011.754000",
          "185011.769000",
          "185051.707000",
          "185051.707000",
          "185051.722000",
          "185051.722000",
          "185051.722000",
          "185051.722000",
          "185051.722000",
          "185051.722000",
          "185051.738000",
          "185051.738000",
          "185051.738000",
          "185051.738000",
          "185051.738000",
          "185051.738000",
          "185051.738000",
          "185051.754000",
          "185051.754000",
          "185051.754000",
          "185051.754000",
          "185051.754000",
          "185055.582000",
          "185055.582000"
        ],
        "InstanceNumber": [
          1,
          2,
          3,
          4,
          5,
          6,
          7,
          8,
          9,
          10,
          11,
          12,
          13,
          14,
          15,
          16,
          17,
          18,
          19,
          20,
          21,
          22,
          23,
          24,
          25,
          26,
          27,
          28,
          29,
          30,
          31,
          32,
          33,
          34,
          35,
          36,
          37,
          38,
          39,
          40,
          41,
          42,
          43,
          44,
          45,
          46,
          47,
          48,
          49,
          50,
          51,
          52,
          53,
          54,
          55,
          56,
          57,
          58,
          59,
          60,
          61,
          62,
          63,
          64,
          65,
          66,
          67,
          68,
          69,
          70,
          71,
          72,
          73,
          74,
          75,
          76,
          77,
          78,
          79,
          80,
          81,
          82,
          83,
          84,
          85,
          86,
          87,
          88,
          89,
          90,
          91,
          92,
          93,
          94,
          95,
          96,
          97,
          98,
          99,
          100,
          101,
          102,
          103,
          104,
          105,
          106,
          107,
          108,
          109,
          110,
          111,
          112,
          113,
          114,
          115,
          116,
          117,
          118,
          119,
          120,
          121,
          122,
          123,
          124,
          125,
          126,
          127,
          128,
          129,
          130,
          131,
          132,
          133,
          134,
          135,
          136,
          137,
          138,
          139,
          140,
          141,
          142,
          143,
          144,
          145,
          146,
          147,
          148,
          149,
          150,
          151,
          152,
          153,
          154,
          155,
          156,
          157,
          158,
          159,
          160,
          161,
          162,
          163,
          164
        ],
        "WindowCenter": [
          1174.0,
          1172.0,
          1172.0,
          1171.0,
          1169.0,
          1169.0,
          1171.0,
          1173.0,
          1174.0,
          1172.0,
          1170.0,
          1170.0,
          1173.0,
          1174.0,
          1174.0,
          1172.0,
          1171.0,
          1172.0,
          1174.0,
          1174.0,
          1174.0,
          1172.0,
          1172.0,
          1173.0,
          1173.0,
          1173.0,
          1173.0,
          1174.0,
          1175.0,
          1174.0,
          1173.0,
          1173.0,
          1173.0,
          1174.0,
          1172.0,
          1173.0,
          1173.0,
          1173.0,
          1174.0,
          1174.0,
          1175.0,
          1177.0,
          1174.0,
          1174.0,
          1172.0,
          1173.0,
          1173.0,
          1172.0,
          1173.0,
          1172.0,
          1172.0,
          1172.0,
          1170.0,
          1172.0,
          1173.0,
          1172.0,
          1172.0,
          1173.0,
          1173.0,
          1173.0,
          1173.0,
          1173.0,
          1172.0,
          1172.0,
          1173.0,
          1173.0,
          1175.0,
          1174.0,
          1174.0,
          1172.0,
          1171.0,
          1171.0,
          1172.0,
          1173.0,
          1174.0,
          1173.0,
          1173.0,
          1175.0,
          1175.0,
          1175.0,
          1174.0,
          1173.0,
          1173.0,
          1174.0,
          1174.0,
          1173.0,
          1173.0,
          1173.0,
          1173.0,
          1172.0,
          1173.0,
          1175.0,
          1176.0,
          1175.0,
          1175.0,
          1175.0,
          1176.0,
          1176.0,
          1176.0,
          1176.0,
          1175.0,
          1175.0,
          1174.0,
          1174.0,
          1176.0,
          1176.0,
          1174.0,
          1173.0,
          1174.0,
          1174.0,
          1175.0,
          1175.0,
          1173.0,
          1174.0,
          1175.0,
          1175.0,
          1174.0,
          1174.0,
          1174.0,
          1174.0,
          1175.0,
          1175.0,
          1173.0,
          1175.0,
          1177.0,
          1178.0,
          1174.0,
          1171.0,
          1170.0,
          1172.0,
          1173.0,
          1172.0,
          1172.0,
          1173.0,
          1173.0,
          1174.0,
          1174.0,
          1175.0,
          1176.0,
          1175.0,
          1174.0,
          1175.0,
          1175.0,
          1174.0,
          1175.0,
          1176.0,
          1174.0,
          1173.0,
          1173.0,
          1172.0,
          1173.0,
          1173.0,
          1172.0,
          1173.0,
          1173.0,
          1173.0,
          1173.0,
          1174.0,
          1174.0,
          1174.0,
          1173.0,
          1174.0,
          1176.0,
          1176.0
        ],
        "WindowWidth": [
          2846.0,
          2842.0,
          2838.0,
          2835.0,
          2830.0,
          2831.0,
          2838.0,
          2843.0,
          2841.0,
          2838.0,
          2835.0,
          2836.0,
          2841.0,
          2846.0,
          2843.0,
          2838.0,
          2836.0,
          2839.0,
          2843.0,
          2844.0,
          2842.0,
          2839.0,
          2839.0,
          2841.0,
          2841.0,
          2842.0,
          2844.0,
          2845.0,
          2847.0,
          2845.0,
          2844.0,
          2843.0,
          2844.0,
          2844.0,
          2842.0,
          2841.0,
          2844.0,
          2846.0,
          2847.0,
          2848.0,
          2854.0,
          2854.0,
          2843.0,
          2842.0,
          2840.0,
          2841.0,
          2841.0,
          2840.0,
          2841.0,
          2838.0,
          2838.0,
          2835.0,
          2836.0,
          2838.0,
          2840.0,
          2838.0,
          2838.0,
          2836.0,
          2840.0,
          2843.0,
          2842.0,
          2839.0,
          2838.0,
          2837.0,
          2840.0,
          2842.0,
          2846.0,
          2848.0,
          2844.0,
          2836.0,
          2836.0,
          2839.0,
          2841.0,
          2844.0,
          2844.0,
          2842.0,
          2842.0,
          2846.0,
          2849.0,
          2847.0,
          2844.0,
          2841.0,
          2843.0,
          2844.0,
          2843.0,
          2840.0,
          2839.0,
          2840.0,
          2839.0,
          2839.0,
          2842.0,
          2847.0,
          2845.0,
          2841.0,
          2843.0,
          2847.0,
          2847.0,
          2844.0,
          2841.0,
          2844.0,
          2846.0,
          2844.0,
          2842.0,
          2842.0,
          2848.0,
          2847.0,
          2841.0,
          2837.0,
          2837.0,
          2838.0,
          2841.0,
          2840.0,
          2839.0,
          2838.0,
          2841.0,
          2843.0,
          2841.0,
          2839.0,
          2843.0,
          2844.0,
          2842.0,
          2840.0,
          2840.0,
          2844.0,
          2851.0,
          2846.0,
          2836.0,
          2831.0,
          2833.0,
