{
  "aor": 0.001943841463414634,
  "aqi": 0.0044707587195121955,
  "bids_meta": {
    "AcquisitionMatrixPE": 96,
    "AcquisitionNumber": 1,
    "AcquisitionTime": "18:53:10.462500",
    "BandwidthPerPixelPhaseEncode": 52.083,
    "BaseResolution": 96,
    "BodyPartExamined": "HEAD",
    "ConversionSoftware": "dcm2niix",
    "ConversionSoftwareVersion": "v1.0.20180622 GCC6.3.0",
    "DerivedVendorReportedEchoSpacing": 0.000600004,
    "DeviceSerialNumber": "18926",
    "DwellTime": 2.6e-06,
    "EchoTime": 0.025,
    "EffectiveEchoSpacing": 0.000200001,
    "FlipAngle": 50,
    "ImageOrientationPatientDICOM": [
      0.999992,
      0.00067012,
      0.00404905,
      2.11009e-10,
      0.98658,
      -0.16328
    ],
    "ImageType": [
      "ORIGINAL",
      "PRIMARY",
      "M",
      "ND",
      "ECHO",
      "00",
      "MOSAIC"
    ],
    "InPlanePhaseEncodingDirectionDICOM": "ROW",
    "InstitutionName": "NIMH",
    "InstitutionalDepartmentName": "Department",
    "MRAcquisitionType": "2D",
    "MagneticFieldStrength": 6.98,
    "Manufacturer": "Siemens",
    "ManufacturersModelName": "Investigational_Device_7T",
    "Modality": "MR",
    "ParallelReductionFactorInPlane": 3,
    "PartialFourier": 1,
    "PatientPosition": "HFS",
    "PercentPhaseFOV": 100,
    "PhaseEncodingDirection": "i",
    "PhaseEncodingSteps": 94,
    "PhaseResolution": 1,
    "PixelBandwidth": 2003,
    "ProcedureStepDescription": "UserProtocols_gonzalez",
    "ProtocolName": "NIH_EPI_2.0iso_TR2_Run05",
    "PulseSequenceDetails": "%CustomerSeq%_inati_nih_epi",
    "ReceiveCoilName": "32Ch_Head_7T",
    "ReconMatrixPE": 96,
    "RepetitionTime": 2,
    "SAR": 0.0762284,
    "ScanningSequence": "EP",
    "SequenceName": "epfid2d1_96",
    "SequenceVariant": "SK",
    "SeriesDescription": "NIH_EPI_2.0iso_TR2_Run05",
    "SeriesNumber": 9,
    "ShimSetting": [
      -50,
      191,
      798,
      1012,
      28,
      665,
      75,
      -332
    ],
    "SliceThickness": 2,
    "SliceTiming": [
      1.0025,
      0,
      1.04,
      0.035,
      1.0775,
      0.0725,
      1.115,
      0.11,
      1.1525,
      0.1475,
      1.1875,
      0.185,
      1.225,
      0.2225,
      1.2625,
      0.26,
      1.3,
      0.2975,
      1.3375,
      0.3325,
      1.375,
      0.37,
      1.4125,
      0.4075,
      1.45,
      0.445,
      1.485,
      0.4825,
      1.5225,
      0.52,
      1.56,
      0.5575,
      1.5975,
      0.595,
      1.635,
      0.63,
      1.6725,
      0.6675,
      1.71,
      0.705,
      1.7475,
      0.7425,
      1.7825,
      0.78,
      1.82,
      0.8175,
      1.8575,
      0.855,
      1.895,
      0.89,
      1.9325,
      0.9275,
      1.97,
      0.965
    ],
    "SoftwareVersions": "syngo_MR_B17",
    "SpacingBetweenSlices": 2,
    "StationName": "FMRIFD7T",
    "TaskName": "HalfFovNoTask",
    "TotalReadoutTime": 0.0190001,
    "TxRefAmp": 315,
    "dataset": "ds001555",
    "dcmmeta_affine": [
      [
        -1.9999831914901733,
        4.2201880878778297e-10,
        0.008208253420889378,
        95.76705169677734
      ],
      [
        -0.0013402394251897931,
        1.973159670829773,
        -0.32655632495880127,
        -58.3952751159668
      ],
      [
        0.008098097518086433,
        0.32655906677246094,
        1.9731431007385254,
        -41.57032775878906
      ],
      [
        0.0,
        0.0,
        0.0,
        1.0
      ]
    ],
    "dcmmeta_reorient_transform": [
      [
        0.0,
        -1.0,
        0.0,
        95.0
      ],
      [
        1.0,
        0.0,
        0.0,
        0.0
      ],
      [
        0.0,
        0.0,
        1.0,
        0.0
      ],
      [
        0.0,
        0.0,
        0.0,
        1.0
      ]
    ],
    "dcmmeta_shape": [
      96,
      96,
      54,
      164
    ],
    "dcmmeta_slice_dim": 2,
    "dcmmeta_version": 0.6,
    "global": {
      "const": {
        "AcquisitionMatrix": [
          0,
          96,
          96,
          0
        ],
        "AngioFlag": "N",
        "BitsAllocated": 16,
        "BitsStored": 12,
        "BodyPartExamined": "HEAD",
        "Columns": 768,
        "EchoNumbers": 1,
        "EchoTime": 25.0,
        "EchoTrainLength": 1,
        "FlipAngle": 50.0,
        "HighBit": 11,
        "ImageOrientationPatient": [
          0.99999157803662,
          0.00067011969073,
          0.00404904870684,
          2.110094e-10,
          0.98657984636313,
          -0.1632795356133
        ],
        "ImagePositionPatient": [
          -767.761392775,
          -792.48687407585,
          96.455670438306
        ],
        "ImageType": [
          "ORIGINAL",
          "PRIMARY",
          "M",
          "ND",
          "ECHO_00",
          "MOSAIC"
        ],
        "ImagedNucleus": "1H",
        "ImagingFrequency": 297.205041,
        "InPlanePhaseEncodingDirection": "ROW",
        "LargestImagePixelValue": 4095,
        "MRAcquisitionType": "2D",
        "MagneticFieldStrength": 6.98,
        "Manufacturer": "SIEMENS",
        "ManufacturerModelName": "Investigational_Device_7T",
        "Modality": "MR",
        "NumberOfAverages": 1.0,
        "NumberOfPhaseEncodingSteps": 94,
        "PercentPhaseFieldOfView": 100.0,
        "PercentSampling": 100.0,
        "PerformedProcedureStepStartTime": "180252.597000",
        "PhotometricInterpretation": "MONOCHROME2",
        "PixelBandwidth": 2003.0,
        "PixelRepresentation": 0,
        "PixelSpacing": [
          2.0,
          2.0
        ],
        "PositionReferenceIndicator": "",
        "ProtocolName": "NIH_EPI_2.0iso_TR2_Run05",
        "RepetitionTime": 2000.0,
        "Rows": 768,
        "SAR": 0.07622842811543,
        "SamplesPerPixel": 1,
        "ScanningSequence": "EP",
        "SequenceName": "epfid2d1_96",
        "SequenceVariant": "SK",
        "SeriesDescription": "NIH_EPI_2.0iso_TR2_Run05",
        "SeriesNumber": 9,
        "SliceLocation": -31.084389907735,
        "SliceThickness": 2.0,
        "SmallestImagePixelValue": 0,
        "SoftwareVersions": "syngo MR B17",
        "SpacingBetweenSlices": 2.0000000184226,
        "TransmitCoilName": "32Ch_Head_7T",
        "VariableFlipAngleFlag": "N",
        "WindowCenterWidthExplanation": "Algo1",
        "dBdt": 0.0
      },
      "slices": {}
    },
    "modality": "bold",
    "run_id": 6,
    "session_id": "02",
    "subject_id": "001",
    "task_id": "HalfFovNoTask",
    "time": {
      "samples": {
        "AcquisitionNumber": [
          1,
          2,
          3,
          4,
          5,
          6,
          7,
          8,
          9,
          10,
          11,
          12,
          13,
          14,
          15,
          16,
          17,
          18,
          19,
          20,
          21,
          22,
          23,
          24,
          25,
          26,
          27,
          28,
          29,
          30,
          31,
          32,
          33,
          34,
          35,
          36,
          37,
          38,
          39,
          40,
          41,
          42,
          43,
          44,
          45,
          46,
          47,
          48,
          49,
          50,
          51,
          52,
          53,
          54,
          55,
          56,
          57,
          58,
          59,
          60,
          61,
          62,
          63,
          64,
          65,
          66,
          67,
          68,
          69,
          70,
          71,
          72,
          73,
          74,
          75,
          76,
          77,
          78,
          79,
          80,
          81,
          82,
          83,
          84,
          85,
          86,
          87,
          88,
          89,
          90,
          91,
          92,
          93,
          94,
          95,
          96,
          97,
          98,
          99,
          100,
          101,
          102,
          103,
          104,
          105,
          106,
          107,
          108,
          109,
          110,
          111,
          112,
          113,
          114,
          115,
          116,
          117,
          118,
          119,
          120,
          121,
          122,
          123,
          124,
          125,
          126,
          127,
          128,
          129,
          130,
          131,
          132,
          133,
          134,
          135,
          136,
          137,
          138,
          139,
          140,
          141,
          142,
          143,
          144,
          145,
          146,
          147,
          148,
          149,
          150,
          151,
          152,
          153,
          154,
          155,
          156,
          157,
          158,
          159,
          160,
          161,
          162,
          163,
          164
        ],
        "AcquisitionTime": [
          "185310.462500",
          "185314.480000",
          "185316.487500",
          "185318.495000",
          "185320.502500",
          "185322.510000",
          "185324.520000",
          "185326.527500",
          "185328.535000",
          "185330.542500",
          "185332.550000",
          "185334.560000",
          "185336.567500",
          "185338.575000",
          "185340.582500",
          "185342.592500",
          "185344.600000",
          "185346.607500",
          "185348.615000",
          "185350.622500",
          "185352.632500",
          "185354.640000",
          "185356.647500",
          "185358.655000",
          "185400.662500",
          "185402.672500",
          "185404.680000",
          "185406.687500",
          "185408.695000",
          "185410.702500",
          "185412.712500",
          "185414.720000",
          "185416.727500",
          "185418.735000",
          "185420.745000",
          "185422.752500",
          "185424.760000",
          "185426.767500",
          "185428.775000",
          "185430.785000",
          "185432.792500",
          "185434.800000",
          "185436.807500",
          "185438.815000",
          "185440.825000",
          "185442.832500",
          "185444.840000",
          "185446.847500",
          "185448.857500",
          "185450.865000",
          "185452.872500",
          "185454.880000",
          "185456.887500",
          "185458.897500",
          "185500.905000",
          "185502.912500",
          "185504.920000",
          "185506.927500",
          "185508.937500",
          "185510.945000",
          "185512.952500",
          "185514.960000",
          "185516.970000",
          "185518.977500",
          "185520.985000",
          "185522.992500",
          "185525.000000",
          "185527.010000",
          "185529.017500",
          "185531.025000",
          "185533.032500",
          "185535.040000",
          "185537.050000",
          "185539.057500",
          "185541.065000",
          "185543.072500",
          "185545.082500",
          "185547.090000",
          "185549.097500",
          "185551.105000",
          "185553.112500",
          "185555.122500",
          "185557.130000",
          "185559.137500",
          "185601.145000",
          "185603.152500",
          "185605.162500",
          "185607.170000",
          "185609.177500",
          "185611.185000",
          "185613.192500",
          "185615.202500",
          "185617.210000",
          "185619.217500",
          "185621.225000",
          "185623.235000",
          "185625.242500",
          "185627.250000",
          "185629.257500",
          "185631.265000",
          "185633.275000",
          "185635.282500",
          "185637.290000",
          "185639.297500",
          "185641.305000",
          "185643.315000",
          "185645.322500",
          "185647.330000",
          "185649.337500",
          "185651.347500",
          "185653.355000",
          "185655.362500",
          "185657.370000",
          "185659.377500",
          "185701.387500",
          "185703.395000",
          "185705.402500",
          "185707.410000",
          "185709.417500",
          "185711.427500",
          "185713.435000",
          "185715.442500",
          "185717.450000",
          "185719.460000",
          "185721.467500",
          "185723.475000",
          "185725.482500",
          "185727.490000",
          "185729.500000",
          "185731.507500",
          "185733.515000",
          "185735.522500",
          "185737.530000",
          "185739.540000",
          "185741.547500",
          "185743.555000",
          "185745.562500",
          "185747.570000",
          "185749.580000",
          "185751.587500",
          "185753.595000",
          "185755.602500",
          "185757.612500",
          "185759.620000",
          "185801.627500",
          "185803.635000",
          "185805.642500",
          "185807.652500",
          "185809.660000",
          "185811.667500",
          "185813.675000",
          "185815.682500",
          "185817.692500",
          "185819.700000",
          "185821.707500",
          "185823.715000",
          "185825.725000",
          "185827.732500",
          "185829.740000",
          "185831.747500",
          "185833.755000",
          "185835.765000",
          "185837.772500",
          "185839.780000"
        ],
        "ContentTime": [
          "185338.222000",
          "185338.222000",
          "185338.222000",
          "185338.222000",
          "185338.238000",
          "185338.238000",
          "185338.238000",
          "185338.238000",
          "185338.238000",
          "185338.238000",
          "185338.254000",
          "185338.254000",
          "185418.207000",
          "185418.207000",
          "185418.222000",
          "185418.222000",
          "185418.222000",
          "185418.222000",
          "185418.222000",
          "185418.238000",
          "185418.238000",
          "185418.238000",
          "185418.238000",
          "185418.238000",
          "185418.238000",
          "185418.238000",
          "185418.254000",
          "185418.254000",
          "185418.254000",
          "185418.254000",
          "185418.254000",
          "185418.254000",
          "185458.207000",
          "185458.222000",
          "185458.222000",
          "185458.222000",
          "185458.222000",
          "185458.238000",
          "185458.238000",
          "185458.238000",
          "185458.238000",
          "185458.238000",
          "185458.238000",
          "185458.254000",
          "185458.254000",
          "185458.254000",
          "185458.254000",
          "185458.254000",
          "185458.254000",
          "185458.269000",
          "185458.269000",
          "185458.269000",
          "185538.207000",
          "185538.207000",
          "185538.222000",
          "185538.222000",
          "185538.222000",
          "185538.222000",
          "185538.222000",
          "185538.222000",
          "185538.238000",
          "185538.238000",
          "185538.238000",
          "185538.238000",
          "185538.238000",
          "185538.238000",
          "185538.238000",
          "185538.254000",
          "185538.254000",
          "185538.254000",
          "185538.254000",
          "185538.254000",
          "185618.222000",
          "185618.222000",
          "185618.222000",
          "185618.238000",
          "185618.238000",
          "185618.238000",
          "185618.238000",
          "185618.238000",
          "185618.254000",
          "185618.254000",
          "185618.254000",
          "185618.254000",
          "185618.254000",
          "185618.254000",
          "185618.269000",
          "185618.269000",
          "185618.269000",
          "185618.269000",
          "185618.269000",
          "185618.269000",
          "185658.222000",
          "185658.222000",
          "185658.222000",
          "185658.222000",
          "185658.238000",
          "185658.238000",
          "185658.238000",
          "185658.238000",
          "185658.238000",
          "185658.238000",
          "185658.254000",
          "185658.254000",
          "185658.254000",
          "185658.254000",
          "185658.254000",
          "185658.254000",
          "185658.269000",
          "185658.269000",
          "185658.269000",
          "185658.269000",
          "185738.222000",
          "185738.222000",
          "185738.222000",
          "185738.222000",
          "185738.238000",
          "185738.238000",
          "185738.238000",
          "185738.238000",
          "185738.254000",
          "185738.254000",
          "185738.254000",
          "185738.254000",
          "185738.254000",
          "185738.254000",
          "185738.269000",
          "185738.269000",
          "185738.269000",
          "185738.269000",
          "185738.269000",
          "185738.269000",
          "185818.207000",
          "185818.207000",
          "185818.222000",
          "185818.222000",
          "185818.222000",
          "185818.222000",
          "185818.222000",
          "185818.222000",
          "185818.222000",
          "185818.238000",
          "185818.238000",
          "185818.238000",
          "185818.238000",
          "185818.238000",
          "185818.238000",
          "185818.238000",
          "185818.254000",
          "185818.254000",
          "185818.254000",
          "185818.254000",
          "185840.894000",
          "185840.894000",
          "185840.894000",
          "185840.910000",
          "185840.910000",
          "185840.910000",
          "185840.910000",
          "185840.925000",
          "185840.925000",
          "185840.925000",
          "185840.925000",
          "185840.941000"
        ],
        "InstanceCreationTime": [
          "185338.222000",
          "185338.222000",
          "185338.222000",
          "185338.222000",
          "185338.238000",
          "185338.238000",
          "185338.238000",
          "185338.238000",
          "185338.238000",
          "185338.238000",
          "185338.254000",
          "185338.254000",
          "185418.207000",
          "185418.207000",
          "185418.222000",
          "185418.222000",
          "185418.222000",
          "185418.222000",
          "185418.222000",
          "185418.238000",
          "185418.238000",
          "185418.238000",
          "185418.238000",
          "185418.238000",
          "185418.238000",
          "185418.238000",
          "185418.254000",
          "185418.254000",
          "185418.254000",
          "185418.254000",
          "185418.254000",
          "185418.254000",
          "185458.207000",
          "185458.222000",
          "185458.222000",
          "185458.222000",
          "185458.222000",
          "185458.238000",
          "185458.238000",
          "185458.238000",
          "185458.238000",
          "185458.238000",
          "185458.238000",
          "185458.254000",
          "185458.254000",
          "185458.254000",
          "185458.254000",
          "185458.254000",
          "185458.254000",
          "185458.269000",
          "185458.269000",
          "185458.269000",
          "185538.207000",
          "185538.207000",
          "185538.222000",
          "185538.222000",
          "185538.222000",
          "185538.222000",
          "185538.222000",
          "185538.222000",
          "185538.238000",
          "185538.238000",
          "185538.238000",
          "185538.238000",
          "185538.238000",
          "185538.238000",
          "185538.238000",
          "185538.254000",
          "185538.254000",
          "185538.254000",
          "185538.254000",
          "185538.254000",
          "185618.222000",
          "185618.222000",
          "185618.222000",
          "185618.238000",
          "185618.238000",
          "185618.238000",
          "185618.238000",
          "185618.238000",
          "185618.254000",
          "185618.254000",
          "185618.254000",
          "185618.254000",
          "185618.254000",
          "185618.254000",
          "185618.269000",
          "185618.269000",
          "185618.269000",
          "185618.269000",
          "185618.269000",
          "185618.269000",
          "185658.222000",
          "185658.222000",
          "185658.222000",
          "185658.222000",
          "185658.238000",
          "185658.238000",
          "185658.238000",
          "185658.238000",
          "185658.238000",
          "185658.238000",
          "185658.254000",
          "185658.254000",
          "185658.254000",
          "185658.254000",
          "185658.254000",
          "185658.254000",
          "185658.269000",
          "185658.269000",
          "185658.269000",
          "185658.269000",
          "185738.222000",
          "185738.222000",
          "185738.222000",
          "185738.222000",
          "185738.238000",
          "185738.238000",
          "185738.238000",
          "185738.238000",
          "185738.254000",
          "185738.254000",
          "185738.254000",
          "185738.254000",
          "185738.254000",
          "185738.254000",
          "185738.269000",
          "185738.269000",
          "185738.269000",
          "185738.269000",
          "185738.269000",
          "185738.269000",
          "185818.207000",
          "185818.207000",
          "185818.222000",
          "185818.222000",
          "185818.222000",
          "185818.222000",
          "185818.222000",
          "185818.222000",
          "185818.222000",
          "185818.238000",
          "185818.238000",
          "185818.238000",
          "185818.238000",
          "185818.238000",
          "185818.238000",
          "185818.238000",
          "185818.254000",
          "185818.254000",
          "185818.254000",
          "185818.254000",
          "185840.894000",
          "185840.894000",
          "185840.894000",
          "185840.910000",
          "185840.910000",
          "185840.910000",
          "185840.910000",
          "185840.925000",
          "185840.925000",
          "185840.925000",
          "185840.925000",
          "185840.941000"
        ],
        "InstanceNumber": [
          1,
          2,
          3,
          4,
          5,
          6,
          7,
          8,
          9,
          10,
          11,
          12,
          13,
          14,
          15,
          16,
          17,
          18,
          19,
          20,
          21,
          22,
          23,
          24,
          25,
          26,
          27,
          28,
          29,
          30,
          31,
          32,
          33,
          34,
          35,
          36,
          37,
          38,
          39,
          40,
          41,
          42,
          43,
          44,
          45,
          46,
          47,
          48,
          49,
          50,
          51,
          52,
          53,
          54,
          55,
          56,
          57,
          58,
          59,
          60,
          61,
          62,
          63,
          64,
          65,
          66,
          67,
          68,
          69,
          70,
          71,
          72,
          73,
          74,
          75,
          76,
          77,
          78,
          79,
          80,
          81,
          82,
          83,
          84,
          85,
          86,
          87,
          88,
          89,
          90,
          91,
          92,
          93,
          94,
          95,
          96,
          97,
          98,
          99,
          100,
          101,
          102,
          103,
          104,
          105,
          106,
          107,
          108,
          109,
          110,
          111,
          112,
          113,
          114,
          115,
          116,
          117,
          118,
          119,
          120,
          121,
          122,
          123,
          124,
          125,
          126,
          127,
          128,
          129,
          130,
          131,
          132,
          133,
          134,
          135,
          136,
          137,
          138,
          139,
          140,
          141,
          142,
          143,
          144,
          145,
          146,
          147,
          148,
          149,
          150,
          151,
          152,
          153,
          154,
          155,
          156,
          157,
          158,
          159,
          160,
          161,
          162,
          163,
          164
        ],
        "WindowCenter": [
          1191.0,
          1189.0,
          1188.0,
          1187.0,
          1187.0,
          1186.0,
          1187.0,
          1187.0,
          1187.0,
          1184.0,
          1185.0,
          1183.0,
          1181.0,
          1182.0,
          1181.0,
          1180.0,
          1181.0,
          1183.0,
          1185.0,
          1188.0,
          1188.0,
          1189.0,
          1188.0,
          1188.0,
          1188.0,
          1187.0,
          1188.0,
          1187.0,
          1187.0,
          1189.0,
          1188.0,
          1188.0,
          1187.0,
          1188.0,
          1187.0,
          1187.0,
          1188.0,
          1187.0,
          1188.0,
          1189.0,
          1189.0,
          1190.0,
          1191.0,
          1190.0,
          1188.0,
          1188.0,
          1188.0,
          1189.0,
          1190.0,
          1188.0,
          1187.0,
          1186.0,
          1186.0,
          1187.0,
          1188.0,
          1187.0,
          1187.0,
          1188.0,
          1189.0,
          1189.0,
          1189.0,
          1187.0,
          1188.0,
          1189.0,
          1187.0,
          1186.0,
          1187.0,
          1187.0,
          1187.0,
          1187.0,
          1186.0,
          1185.0,
          1187.0,
          1185.0,
          1185.0,
          1185.0,
          1184.0,
          1184.0,
          1186.0,
          1186.0,
          1186.0,
          1184.0,
          1185.0,
          1186.0,
          1186.0,
          1187.0,
          1188.0,
          1188.0,
          1187.0,
          1186.0,
          1187.0,
          1187.0,
          1188.0,
          1185.0,
          1182.0,
          1182.0,
          1184.0,
          1186.0,
          1189.0,
          1187.0,
          1186.0,
          1186.0,
          1186.0,
          1189.0,
          1191.0,
          1189.0,
          1186.0,
          1187.0,
          1187.0,
          1188.0,
          1187.0,
          1185.0,
          1184.0,
          1184.0,
          1184.0,
          1184.0,
          1185.0,
          1186.0,
          1187.0,
          1187.0,
          1187.0,
          1187.0,
          1187.0,
          1188.0,
          1187.0,
          1187.0,
          1186.0,
          1184.0,
          1185.0,
          1187.0,
          1187.0,
          1186.0,
          1187.0,
          1185.0,
          1186.0,
          1186.0,
          1186.0,
          1184.0,
          1185.0,
          1185.0,
          1186.0,
          1186.0,
          1184.0,
          1182.0,
          1183.0,
          1183.0,
          1183.0,
          1185.0,
          1185.0,
          1184.0,
          1183.0,
          1181.0,
          1182.0,
          1183.0,
          1184.0,
          1187.0,
          1184.0,
          1183.0,
          1185.0,
          1184.0,
          1184.0,
          1181.0,
          1180.0,
          1181.0
        ],
        "WindowWidth": [
          2869.0,
          2866.0,
          2862.0,
          2863.0,
          2859.0,
          2861.0,
          2863.0,
          2863.0,
          2858.0,
          2857.0,
          2859.0,
          2851.0,
          2849.0,
          2846.0,
          2843.0,
          2843.0,
          2848.0,
          2854.0,
          2859.0,
          2866.0,
          2867.0,
          2868.0,
          2868.0,
          2868.0,
          2866.0,
          2866.0,
          2865.0,
          2865.0,
          2868.0,
          2868.0,
          2867.0,
          2865.0,
          2868.0,
          2867.0,
          2864.0,
          2863.0,
          2864.0,
          2867.0,
          2867.0,
          2870.0,
          2872.0,
          2876.0,
          2876.0,
          2871.0,
          2865.0,
          2864.0,
          2867.0,
          2869.0,
          2870.0,
          2866.0,
          2861.0,
          2862.0,
          2865.0,
          2865.0,
          2865.0,
          2863.0,
          2865.0,
          2867.0,
          2869.0,
          2869.0,
          2868.0,
          2867.0,
          2869.0,
          2871.0,
          2865.0,
          2865.0,
          2865.0,
          2865.0,
          2866.0,
          2864.0,
          2860.0,
          2859.0,
          2862.0,
          2859.0,
          2856.0,
          2854.0,
          2854.0,
          2855.0,
          2855.0,
          2859.0,
          2860.0,
          2858.0,
          2859.0,
          2861.0,
          2862.0,
          2866.0,
          2867.0,
          2865.0,
          2864.0,
          2862.0,
          2865.0,
          2865.0,
          2864.0,
          2853.0,
          2849.0,
          2853.0,
          2857.0,
          2862.0,
          2866.0,
          2862.0,
          2860.0,
          2859.0,
          2861.0,
          2870.0,
          2874.0,
          2866.0,
          2859.0,
          2863.0,
          2864.0,
          2862.0,
          2859.0,
          2856.0,
          2851.0,
          2854.0,
          2854.0,
          2854.0,
          2856.0,
          2856.0,
          2858.0,
          2861.0,
          2862.0,
          2863.0,
          2864.0,
          2867.0,
          2865.0,
          2863.0,
          2859.0,
          2858.0,
          2859.0,
