{
  "aor": 0.0014328658536585368,
  "aqi": 0.0034462290243902445,
  "bids_meta": {
    "AcquisitionMatrixPE": 96,
    "AcquisitionNumber": 1,
    "AcquisitionTime": "13:22:30.245000",
    "BandwidthPerPixelPhaseEncode": 52.083,
    "BaseResolution": 96,
    "BodyPartExamined": "HEAD",
    "ConversionSoftware": "dcm2niix",
    "ConversionSoftwareVersion": "v1.0.20180622 GCC6.3.0",
    "DerivedVendorReportedEchoSpacing": 0.000600004,
    "DeviceSerialNumber": "18926",
    "DwellTime": 2.6e-06,
    "EchoTime": 0.025,
    "EffectiveEchoSpacing": 0.000200001,
    "FlipAngle": 50,
    "ImageOrientationPatientDICOM": [
      0.999992,
      0.00067012,
      0.00404905,
      2.11009e-10,
      0.98658,
      -0.16328
    ],
    "ImageType": [
      "ORIGINAL",
      "PRIMARY",
      "M",
      "ND",
      "ECHO",
      "00",
      "MOSAIC"
    ],
    "InPlanePhaseEncodingDirectionDICOM": "ROW",
    "InstitutionName": "NIMH",
    "InstitutionalDepartmentName": "Department",
    "MRAcquisitionType": "2D",
    "MagneticFieldStrength": 6.98,
    "Manufacturer": "Siemens",
    "ManufacturersModelName": "Investigational_Device_7T",
    "Modality": "MR",
    "ParallelReductionFactorInPlane": 3,
    "PartialFourier": 1,
    "PatientPosition": "HFS",
    "PercentPhaseFOV": 100,
    "PhaseEncodingDirection": "i",
    "PhaseEncodingSteps": 94,
    "PhaseResolution": 1,
    "PixelBandwidth": 2003,
    "ProcedureStepDescription": "MRI_Procedure_Limited",
    "ProtocolName": "NIH_EPI_2.0iso_TR2_Run12",
    "PulseSequenceDetails": "%CustomerSeq%_inati_nih_epi",
    "ReceiveCoilName": "32Ch_Head_7T",
    "ReconMatrixPE": 96,
    "RepetitionTime": 2,
    "SAR": 0.0812638,
    "ScanningSequence": "EP",
    "SequenceName": "epfid2d1_96",
    "SequenceVariant": "SK",
    "SeriesDescription": "NIH_EPI_2.0iso_TR2_Run12",
    "SeriesNumber": 16,
    "ShimSetting": [
      -115,
      322,
      1244,
      1955,
      -97,
      654,
      347,
      -236
    ],
    "SliceThickness": 2,
    "SliceTiming": [
      1.0025,
      0,
      1.04,
      0.035,
      1.0775,
      0.0725,
      1.115,
      0.11,
      1.1525,
      0.1475,
      1.1875,
      0.185,
      1.225,
      0.2225,
      1.2625,
      0.26,
      1.3,
      0.2975,
      1.3375,
      0.3325,
      1.375,
      0.37,
      1.4125,
      0.4075,
      1.45,
      0.445,
      1.485,
      0.4825,
      1.5225,
      0.52,
      1.56,
      0.5575,
      1.5975,
      0.5925,
      1.635,
      0.63,
      1.6725,
      0.6675,
      1.71,
      0.705,
      1.7475,
      0.7425,
      1.7825,
      0.78,
      1.82,
      0.8175,
      1.8575,
      0.855,
      1.895,
      0.89,
      1.9325,
      0.9275,
      1.97,
      0.965
    ],
    "SoftwareVersions": "syngo_MR_B17",
    "SpacingBetweenSlices": 2,
    "StationName": "FMRIFD7T",
    "TaskName": "FullFovNoAttentionTask",
    "TotalReadoutTime": 0.0190001,
    "TxRefAmp": 287,
    "dataset": "ds001555",
    "dcmmeta_affine": [
      [
        -1.9999831914901733,
        4.2201880878778297e-10,
        0.008208253420889378,
        95.76705169677734
      ],
      [
        -0.0013402394251897931,
        1.973159670829773,
        -0.32655632495880127,
        -62.44346618652344
      ],
      [
        0.008098097518086433,
        0.32655906677246094,
        1.9731431007385254,
        -46.29322052001953
      ],
      [
        0.0,
        0.0,
        0.0,
        1.0
      ]
    ],
    "dcmmeta_reorient_transform": [
      [
        0.0,
        -1.0,
        0.0,
        95.0
      ],
      [
        1.0,
        0.0,
        0.0,
        0.0
      ],
      [
        0.0,
        0.0,
        1.0,
        0.0
      ],
      [
        0.0,
        0.0,
        0.0,
        1.0
      ]
    ],
    "dcmmeta_shape": [
      96,
      96,
      54,
      164
    ],
    "dcmmeta_slice_dim": 2,
    "dcmmeta_version": 0.6,
    "global": {
      "const": {
        "AcquisitionMatrix": [
          0,
          96,
          96,
          0
        ],
        "Allergies": "No Known Allergies",
        "AngioFlag": "N",
        "BitsAllocated": 16,
        "BitsStored": 12,
        "BodyPartExamined": "HEAD",
        "Columns": 768,
        "EchoNumbers": 1,
        "EchoTime": 25.0,
        "EchoTrainLength": 1,
        "FlipAngle": 50.0,
        "HighBit": 11,
        "ImageOrientationPatient": [
          0.99999157803662,
          0.00067011969073,
          0.00404904870684,
          2.110094e-10,
          0.98657984636313,
          -0.1632795356133
        ],
        "ImagePositionPatient": [
          -767.761392775,
          -788.43868109794,
          91.732777677076
        ],
        "ImageType": [
          "ORIGINAL",
          "PRIMARY",
          "M",
          "ND",
          "ECHO_00",
          "MOSAIC"
        ],
        "ImagedNucleus": "1H",
        "ImagingFrequency": 297.205174,
        "InPlanePhaseEncodingDirection": "ROW",
        "LargestImagePixelValue": 4095,
        "MRAcquisitionType": "2D",
        "MagneticFieldStrength": 6.98,
        "Manufacturer": "SIEMENS",
        "ManufacturerModelName": "Investigational_Device_7T",
        "Modality": "MR",
        "NumberOfAverages": 1.0,
        "NumberOfPhaseEncodingSteps": 94,
        "PercentPhaseFieldOfView": 100.0,
        "PercentSampling": 100.0,
        "PerformedProcedureStepStartTime": "115404.078000",
        "PhotometricInterpretation": "MONOCHROME2",
        "PixelBandwidth": 2003.0,
        "PixelRepresentation": 0,
        "PixelSpacing": [
          2.0,
          2.0
        ],
        "PositionReferenceIndicator": "",
        "ProcedureCodeSequence": [
          {
            "CodeMeaning": "MRI Procedure Limited",
            "CodeValue": "MI01491",
            "CodingSchemeDesignator": "USA Standard",
            "ContextIdentifier": "4000109576"
          }
        ],
        "ProtocolName": "NIH_EPI_2.0iso_TR2_Run12",
        "ReferencedStudySequence": [
          {
            "ReferencedSOPClassUID": "1.2.840.10008.3.1.2.3.1",
            "ReferencedSOPInstanceUID": "1.2.840.113564.9.1.2723958737.61.2.5000075338"
          }
        ],
        "RepetitionTime": 2000.0,
        "RequestedProcedureCodeSequence": [
          {
            "CodeMeaning": "MRI Procedure Limited",
            "CodeValue": "MI01491",
            "CodingSchemeDesignator": "USA Standard",
            "ContextIdentifier": "4000109576"
          }
        ],
        "RequestingService": "MHED",
        "Rows": 768,
        "SAR": 0.0812637748338,
        "SamplesPerPixel": 1,
        "ScanningSequence": "EP",
        "SequenceName": "epfid2d1_96",
        "SequenceVariant": "SK",
        "SeriesDescription": "NIH_EPI_2.0iso_TR2_Run12",
        "SeriesNumber": 16,
        "SliceLocation": -35.082879977569,
        "SliceThickness": 2.0,
        "SmallestImagePixelValue": 0,
        "SoftwareVersions": "syngo MR B17",
        "SpacingBetweenSlices": 2.0000000184226,
        "TransmitCoilName": "32Ch_Head_7T",
        "VariableFlipAngleFlag": "N",
        "WindowCenterWidthExplanation": "Algo1",
        "dBdt": 0.0
      },
      "slices": {}
    },
    "modality": "bold",
    "run_id": 13,
    "session_id": "05",
    "subject_id": "002",
    "task_id": "FullFovNoAttentionTask",
    "time": {
      "samples": {
        "AcquisitionNumber": [
          1,
          2,
          3,
          4,
          5,
          6,
          7,
          8,
          9,
          10,
          11,
          12,
          13,
          14,
          15,
          16,
          17,
          18,
          19,
          20,
          21,
          22,
          23,
          24,
          25,
          26,
          27,
          28,
          29,
          30,
          31,
          32,
          33,
          34,
          35,
          36,
          37,
          38,
          39,
          40,
          41,
          42,
          43,
          44,
          45,
          46,
          47,
          48,
          49,
          50,
          51,
          52,
          53,
          54,
          55,
          56,
          57,
          58,
          59,
          60,
          61,
          62,
          63,
          64,
          65,
          66,
          67,
          68,
          69,
          70,
          71,
          72,
          73,
          74,
          75,
          76,
          77,
          78,
          79,
          80,
          81,
          82,
          83,
          84,
          85,
          86,
          87,
          88,
          89,
          90,
          91,
          92,
          93,
          94,
          95,
          96,
          97,
          98,
          99,
          100,
          101,
          102,
          103,
          104,
          105,
          106,
          107,
          108,
          109,
          110,
          111,
          112,
          113,
          114,
          115,
          116,
          117,
          118,
          119,
          120,
          121,
          122,
          123,
          124,
          125,
          126,
          127,
          128,
          129,
          130,
          131,
          132,
          133,
          134,
          135,
          136,
          137,
          138,
          139,
          140,
          141,
          142,
          143,
          144,
          145,
          146,
          147,
          148,
          149,
          150,
          151,
          152,
          153,
          154,
          155,
          156,
          157,
          158,
          159,
          160,
          161,
          162,
          163,
          164
        ],
        "AcquisitionTime": [
          "132230.245000",
          "132234.262500",
          "132236.270000",
          "132238.277500",
          "132240.285000",
          "132242.292500",
          "132244.302500",
          "132246.310000",
          "132248.317500",
          "132250.325000",
          "132252.332500",
          "132254.342500",
          "132256.350000",
          "132258.357500",
          "132300.365000",
          "132302.372500",
          "132304.382500",
          "132306.390000",
          "132308.397500",
          "132310.405000",
          "132312.415000",
          "132314.422500",
          "132316.430000",
          "132318.437500",
          "132320.445000",
          "132322.455000",
          "132324.462500",
          "132326.470000",
          "132328.477500",
          "132330.485000",
          "132332.495000",
          "132334.502500",
          "132336.510000",
          "132338.517500",
          "132340.527500",
          "132342.535000",
          "132344.542500",
          "132346.550000",
          "132348.557500",
          "132350.567500",
          "132352.575000",
          "132354.582500",
          "132356.590000",
          "132358.597500",
          "132400.607500",
          "132402.615000",
          "132404.622500",
          "132406.630000",
          "132408.640000",
          "132410.647500",
          "132412.655000",
          "132414.662500",
          "132416.670000",
          "132418.680000",
          "132420.687500",
          "132422.695000",
          "132424.702500",
          "132426.710000",
          "132428.720000",
          "132430.727500",
          "132432.735000",
          "132434.742500",
          "132436.750000",
          "132438.760000",
          "132440.767500",
          "132442.775000",
          "132444.782500",
          "132446.792500",
          "132448.800000",
          "132450.807500",
          "132452.815000",
          "132454.822500",
          "132456.832500",
          "132458.840000",
          "132500.847500",
          "132502.855000",
          "132504.862500",
          "132506.872500",
          "132508.880000",
          "132510.887500",
          "132512.895000",
          "132514.905000",
          "132516.912500",
          "132518.920000",
          "132520.927500",
          "132522.935000",
          "132524.945000",
          "132526.952500",
          "132528.960000",
          "132530.967500",
          "132532.975000",
          "132534.985000",
          "132536.992500",
          "132539.000000",
          "132541.007500",
          "132543.017500",
          "132545.025000",
          "132547.032500",
          "132549.040000",
          "132551.047500",
          "132553.057500",
          "132555.065000",
          "132557.072500",
          "132559.080000",
          "132601.087500",
          "132603.097500",
          "132605.105000",
          "132607.112500",
          "132609.120000",
          "132611.127500",
          "132613.137500",
          "132615.145000",
          "132617.152500",
          "132619.160000",
          "132621.170000",
          "132623.177500",
          "132625.185000",
          "132627.192500",
          "132629.200000",
          "132631.210000",
          "132633.217500",
          "132635.225000",
          "132637.232500",
          "132639.240000",
          "132641.250000",
          "132643.257500",
          "132645.265000",
          "132647.272500",
          "132649.282500",
          "132651.290000",
          "132653.297500",
          "132655.305000",
          "132657.312500",
          "132659.322500",
          "132701.330000",
          "132703.337500",
          "132705.345000",
          "132707.352500",
          "132709.362500",
          "132711.370000",
          "132713.377500",
          "132715.385000",
          "132717.395000",
          "132719.402500",
          "132721.410000",
          "132723.417500",
          "132725.425000",
          "132727.435000",
          "132729.442500",
          "132731.450000",
          "132733.457500",
          "132735.465000",
          "132737.475000",
          "132739.482500",
          "132741.490000",
          "132743.497500",
          "132745.507500",
          "132747.515000",
          "132749.522500",
          "132751.530000",
          "132753.537500",
          "132755.547500",
          "132757.555000",
          "132759.562500"
        ],
        "ContentTime": [
          "132315.593000",
          "132315.593000",
          "132315.609000",
          "132315.609000",
          "132315.609000",
          "132315.609000",
          "132315.609000",
          "132315.609000",
          "132315.625000",
          "132315.625000",
          "132315.625000",
          "132315.625000",
          "132315.625000",
          "132315.640000",
          "132315.640000",
          "132315.640000",
          "132315.656000",
          "132315.656000",
          "132315.656000",
          "132315.656000",
          "132315.656000",
          "132355.578000",
          "132355.593000",
          "132355.593000",
          "132355.593000",
          "132355.593000",
          "132355.593000",
          "132355.593000",
          "132355.609000",
          "132355.609000",
          "132355.609000",
          "132355.609000",
          "132355.609000",
          "132355.609000",
          "132355.625000",
          "132355.625000",
          "132355.640000",
          "132355.640000",
          "132355.640000",
          "132355.640000",
          "132355.640000",
          "132435.578000",
          "132435.593000",
          "132435.593000",
          "132435.593000",
          "132435.593000",
          "132435.593000",
          "132435.593000",
          "132435.609000",
          "132435.609000",
          "132435.609000",
          "132435.609000",
          "132435.609000",
          "132435.609000",
          "132435.625000",
          "132435.625000",
          "132435.625000",
          "132435.625000",
          "132435.625000",
          "132435.625000",
          "132435.625000",
          "132515.578000",
          "132515.593000",
          "132515.593000",
          "132515.593000",
          "132515.593000",
          "132515.593000",
          "132515.593000",
          "132515.609000",
          "132515.609000",
          "132515.625000",
          "132515.625000",
          "132515.625000",
          "132515.625000",
          "132515.625000",
          "132515.625000",
          "132515.640000",
          "132515.640000",
          "132515.640000",
          "132515.640000",
          "132515.640000",
          "132555.578000",
          "132555.593000",
          "132555.593000",
          "132555.593000",
          "132555.593000",
          "132555.593000",
          "132555.609000",
          "132555.609000",
          "132555.609000",
          "132555.609000",
          "132555.625000",
          "132555.625000",
          "132555.625000",
          "132555.625000",
          "132555.625000",
          "132555.625000",
          "132555.640000",
          "132555.640000",
          "132555.640000",
          "132555.640000",
          "132635.578000",
          "132635.593000",
          "132635.593000",
          "132635.593000",
          "132635.593000",
          "132635.593000",
          "132635.593000",
          "132635.609000",
          "132635.609000",
          "132635.625000",
          "132635.625000",
          "132635.640000",
          "132635.640000",
          "132635.640000",
          "132635.656000",
          "132635.656000",
          "132635.656000",
          "132635.656000",
          "132635.656000",
          "132635.656000",
          "132715.578000",
          "132715.593000",
          "132715.593000",
          "132715.593000",
          "132715.593000",
          "132715.593000",
          "132715.609000",
          "132715.609000",
          "132715.609000",
          "132715.625000",
          "132715.625000",
          "132715.625000",
          "132715.625000",
          "132715.625000",
          "132715.625000",
          "132715.625000",
          "132715.640000",
          "132715.640000",
          "132715.640000",
          "132715.640000",
          "132755.578000",
          "132755.593000",
          "132755.593000",
          "132755.609000",
          "132755.609000",
          "132755.609000",
          "132755.609000",
          "132755.609000",
          "132755.609000",
          "132755.625000",
          "132755.625000",
          "132755.625000",
          "132755.625000",
          "132755.625000",
          "132755.625000",
          "132755.625000",
          "132755.640000",
          "132755.640000",
          "132755.640000",
          "132755.640000",
          "132759.703000",
          "132759.703000",
          "132759.703000"
        ],
        "InstanceCreationTime": [
          "132315.593000",
          "132315.593000",
          "132315.609000",
          "132315.609000",
          "132315.609000",
          "132315.609000",
          "132315.609000",
          "132315.609000",
          "132315.625000",
          "132315.625000",
          "132315.625000",
          "132315.625000",
          "132315.625000",
          "132315.640000",
          "132315.640000",
          "132315.640000",
          "132315.656000",
          "132315.656000",
          "132315.656000",
          "132315.656000",
          "132315.656000",
          "132355.578000",
          "132355.593000",
          "132355.593000",
          "132355.593000",
          "132355.593000",
          "132355.593000",
          "132355.593000",
          "132355.609000",
          "132355.609000",
          "132355.609000",
          "132355.609000",
          "132355.609000",
          "132355.609000",
          "132355.625000",
          "132355.625000",
          "132355.640000",
          "132355.640000",
          "132355.640000",
          "132355.640000",
          "132355.640000",
          "132435.578000",
          "132435.593000",
          "132435.593000",
          "132435.593000",
          "132435.593000",
          "132435.593000",
          "132435.593000",
          "132435.609000",
          "132435.609000",
          "132435.609000",
          "132435.609000",
          "132435.609000",
          "132435.609000",
          "132435.625000",
          "132435.625000",
          "132435.625000",
          "132435.625000",
          "132435.625000",
          "132435.625000",
          "132435.625000",
          "132515.578000",
          "132515.593000",
          "132515.593000",
          "132515.593000",
          "132515.593000",
          "132515.593000",
          "132515.593000",
          "132515.609000",
          "132515.609000",
          "132515.625000",
          "132515.625000",
          "132515.625000",
          "132515.625000",
          "132515.625000",
          "132515.625000",
          "132515.640000",
          "132515.640000",
          "132515.640000",
          "132515.640000",
          "132515.640000",
          "132555.578000",
          "132555.593000",
          "132555.593000",
          "132555.593000",
          "132555.593000",
          "132555.593000",
          "132555.609000",
          "132555.609000",
          "132555.609000",
          "132555.609000",
          "132555.625000",
          "132555.625000",
          "132555.625000",
          "132555.625000",
          "132555.625000",
          "132555.625000",
          "132555.640000",
          "132555.640000",
          "132555.640000",
          "132555.640000",
          "132635.578000",
          "132635.593000",
          "132635.593000",
          "132635.593000",
          "132635.593000",
          "132635.593000",
          "132635.593000",
          "132635.609000",
          "132635.609000",
          "132635.625000",
          "132635.625000",
          "132635.640000",
          "132635.640000",
          "132635.640000",
          "132635.656000",
          "132635.656000",
          "132635.656000",
          "132635.656000",
          "132635.656000",
          "132635.656000",
          "132715.578000",
          "132715.593000",
          "132715.593000",
          "132715.593000",
          "132715.593000",
          "132715.593000",
          "132715.609000",
          "132715.609000",
          "132715.609000",
          "132715.625000",
          "132715.625000",
          "132715.625000",
          "132715.625000",
          "132715.625000",
          "132715.625000",
          "132715.625000",
          "132715.640000",
          "132715.640000",
          "132715.640000",
          "132715.640000",
          "132755.578000",
          "132755.593000",
          "132755.593000",
          "132755.609000",
          "132755.609000",
          "132755.609000",
          "132755.609000",
          "132755.609000",
          "132755.609000",
          "132755.625000",
          "132755.625000",
          "132755.625000",
          "132755.625000",
          "132755.625000",
          "132755.625000",
          "132755.625000",
          "132755.640000",
          "132755.640000",
          "132755.640000",
          "132755.640000",
          "132759.703000",
          "132759.703000",
          "132759.703000"
        ],
        "InstanceNumber": [
          1,
          2,
          3,
          4,
          5,
          6,
          7,
          8,
          9,
          10,
          11,
          12,
          13,
          14,
          15,
          16,
          17,
          18,
          19,
          20,
          21,
          22,
          23,
          24,
          25,
          26,
          27,
          28,
          29,
          30,
          31,
          32,
          33,
          34,
          35,
          36,
          37,
          38,
          39,
          40,
          41,
          42,
          43,
          44,
          45,
          46,
          47,
          48,
          49,
          50,
          51,
          52,
          53,
          54,
          55,
          56,
          57,
          58,
          59,
          60,
          61,
          62,
          63,
          64,
          65,
          66,
          67,
          68,
          69,
          70,
          71,
          72,
          73,
          74,
          75,
          76,
          77,
          78,
          79,
          80,
          81,
          82,
          83,
          84,
          85,
          86,
          87,
          88,
          89,
          90,
          91,
          92,
          93,
          94,
          95,
          96,
          97,
          98,
          99,
          100,
          101,
          102,
          103,
          104,
          105,
          106,
          107,
          108,
          109,
          110,
          111,
          112,
          113,
          114,
          115,
          116,
          117,
          118,
          119,
          120,
          121,
          122,
          123,
          124,
          125,
          126,
          127,
          128,
          129,
          130,
          131,
          132,
          133,
          134,
          135,
          136,
          137,
          138,
          139,
          140,
          141,
          142,
          143,
          144,
          145,
          146,
          147,
          148,
          149,
          150,
          151,
          152,
          153,
          154,
          155,
          156,
          157,
          158,
          159,
          160,
          161,
          162,
          163,
          164
        ],
        "WindowCenter": [
          1046.0,
          1048.0,
          1045.0,
          1045.0,
          1046.0,
          1045.0,
          1046.0,
          1045.0,
          1045.0,
          1045.0,
          1045.0,
          1044.0,
          1045.0,
          1044.0,
          1042.0,
          1044.0,
          1044.0,
          1043.0,
          1044.0,
          1043.0,
          1043.0,
          1045.0,
          1044.0,
          1044.0,
          1044.0,
          1043.0,
          1046.0,
          1045.0,
          1044.0,
          1046.0,
          1043.0,
          1042.0,
          1042.0,
          1044.0,
          1044.0,
          1043.0,
          1045.0,
          1045.0,
          1045.0,
          1045.0,
          1043.0,
          1044.0,
          1046.0,
          1045.0,
          1046.0,
          1045.0,
          1045.0,
          1045.0,
          1044.0,
          1046.0,
          1046.0,
          1045.0,
          1045.0,
          1044.0,
          1045.0,
          1044.0,
          1044.0,
          1045.0,
          1044.0,
          1045.0,
          1045.0,
          1046.0,
          1045.0,
          1044.0,
          1046.0,
          1046.0,
          1047.0,
          1047.0,
          1046.0,
          1045.0,
          1046.0,
          1046.0,
          1045.0,
          1045.0,
          1046.0,
          1045.0,
          1045.0,
          1046.0,
          1045.0,
          1044.0,
          1044.0,
          1044.0,
          1044.0,
          1045.0,
          1045.0,
          1045.0,
          1046.0,
          1044.0,
          1044.0,
          1045.0,
          1045.0,
          1045.0,
          1045.0,
          1045.0,
          1045.0,
          1045.0,
          1044.0,
          1045.0,
          1049.0,
          1048.0,
          1045.0,
          1044.0,
          1043.0,
          1044.0,
          1045.0,
          1045.0,
          1045.0,
          1045.0,
          1046.0,
          1046.0,
          1045.0,
          1046.0,
          1044.0,
          1046.0,
          1046.0,
          1045.0,
          1046.0,
          1045.0,
          1047.0,
          1047.0,
          1047.0,
          1044.0,
          1045.0,
          1045.0,
          1044.0,
          1046.0,
          1045.0,
          1046.0,
          1045.0,
          1044.0,
          1044.0,
          1045.0,
          1046.0,
          1044.0,
          1044.0,
          1047.0,
          1046.0,
          1046.0,
          1047.0,
          1048.0,
          1047.0,
          1044.0,
          1043.0,
          1045.0,
          1046.0,
          1045.0,
          1045.0,
          1044.0,
          1047.0,
          1048.0,
          1045.0,
          1043.0,
          1044.0,
          1046.0,
          1047.0,
          1046.0,
          1046.0,
          1046.0,
          1047.0,
          1046.0,
          1046.0,
          1044.0,
          1046.0,
          1046.0
        ],
        "WindowWidth": [
          2788.0,
          2791.0,
          2781.0,
          2777.0,
          2786.0,
          2781.0,
          2786.0,
          2783.0,
          2781.0,
          2790.0,
          2782.0,
          2777.0,
          2783.0,
          2776.0,
          2773.0,
          2779.0,
          2779.0,
          2773.0,
          2780.0,
          2774.0,
          2775.0,
          2783.0,
          2779.0,
          2785.0,
          2780.0,
          2778.0,
          2789.0,
          2785.0,
          2785.0,
          2789.0,
          2774.0,
          2772.0,
          2777.0,
          2784.0,
          2778.0,
          2778.0,
          2793.0,
          2784.0,
          2783.0,
          2788.0,
          2781.0,
          2786.0,
          2794.0,
          2786.0,
          2792.0,
          2788.0,
          2785.0,
          2787.0,
          2783.0,
          2792.0,
          2787.0,
          2785.0,
          2788.0,
          2788.0,
          2786.0,
          2790.0,
          2787.0,
          2789.0,
          2789.0,
          2795.0,
          2794.0,
          2799.0,
          2788.0,
          2792.0,
          2791.0,
          2791.0,
          2805.0,
          2797.0,
          2791.0,
          2790.0,
          2782.0,
          2796.0,
          2788.0,
          2790.0,
          2790.0,
          2786.0,
          2792.0,
          2796.0,
          2784.0,
          2784.0,
          2786.0,
          2787.0,
