{
  "aor": 0.0018529878048780487,
  "aqi": 0.007007187134146341,
  "bids_meta": {
    "AcquisitionMatrixPE": 96,
    "AcquisitionNumber": 1,
    "AcquisitionTime": "12:20:51.267500",
    "BandwidthPerPixelPhaseEncode": 52.083,
    "BaseResolution": 96,
    "BodyPartExamined": "HEAD",
    "ConversionSoftware": "dcm2niix",
    "ConversionSoftwareVersion": "v1.0.20180622 GCC6.3.0",
    "DerivedVendorReportedEchoSpacing": 0.000600004,
    "DeviceSerialNumber": "18926",
    "DwellTime": 2.6e-06,
    "EchoTime": 0.025,
    "EffectiveEchoSpacing": 0.000200001,
    "FlipAngle": 50,
    "ImageOrientationPatientDICOM": [
      0.999992,
      0.00067012,
      0.00404905,
      2.11009e-10,
      0.98658,
      -0.16328
    ],
    "ImageType": [
      "ORIGINAL",
      "PRIMARY",
      "M",
      "ND",
      "ECHO",
      "00",
      "MOSAIC"
    ],
    "InPlanePhaseEncodingDirectionDICOM": "ROW",
    "InstitutionName": "NIMH",
    "InstitutionalDepartmentName": "Department",
    "MRAcquisitionType": "2D",
    "MagneticFieldStrength": 6.98,
    "Manufacturer": "Siemens",
    "ManufacturersModelName": "Investigational_Device_7T",
    "Modality": "MR",
    "ParallelReductionFactorInPlane": 3,
    "PartialFourier": 1,
    "PatientPosition": "HFS",
    "PercentPhaseFOV": 100,
    "PhaseEncodingDirection": "i",
    "PhaseEncodingSteps": 94,
    "PhaseResolution": 1,
    "PixelBandwidth": 2003,
    "ProcedureStepDescription": "MRI_Procedure_Limited",
    "ProtocolName": "NIH_EPI_2.0iso_TR2_Run02",
    "PulseSequenceDetails": "%CustomerSeq%_inati_nih_epi",
    "ReceiveCoilName": "32Ch_Head_7T",
    "ReconMatrixPE": 96,
    "RepetitionTime": 2,
    "SAR": 0.0812638,
    "ScanningSequence": "EP",
    "SequenceName": "epfid2d1_96",
    "SequenceVariant": "SK",
    "SeriesDescription": "NIH_EPI_2.0iso_TR2_Run02",
    "SeriesNumber": 6,
    "ShimSetting": [
      -115,
      322,
      1244,
      1955,
      -97,
      654,
      347,
      -236
    ],
    "SliceThickness": 2,
    "SliceTiming": [
      1.005,
      0,
      1.0425,
      0.0375,
      1.08,
      0.075,
      1.1175,
      0.1125,
      1.1525,
      0.15,
      1.19,
      0.1875,
      1.2275,
      0.225,
      1.265,
      0.26,
      1.3025,
      0.2975,
      1.34,
      0.335,
      1.3775,
      0.3725,
      1.415,
      0.41,
      1.45,
      0.4475,
      1.4875,
      0.485,
      1.525,
      0.5225,
      1.5625,
      0.5575,
      1.6,
      0.595,
      1.6375,
      0.6325,
      1.675,
      0.67,
      1.71,
      0.7075,
      1.7475,
      0.745,
      1.785,
      0.7825,
      1.8225,
      0.82,
      1.86,
      0.855,
      1.8975,
      0.8925,
      1.935,
      0.93,
      1.9725,
      0.9675
    ],
    "SoftwareVersions": "syngo_MR_B17",
    "SpacingBetweenSlices": 2,
    "StationName": "FMRIFD7T",
    "TaskName": "FullFovNoAttentionTask",
    "TotalReadoutTime": 0.0190001,
    "TxRefAmp": 287,
    "dataset": "ds001555",
    "dcmmeta_affine": [
      [
        -1.9999831914901733,
        4.2201880878778297e-10,
        0.008208253420889378,
        95.76705169677734
      ],
      [
        -0.0013402394251897931,
        1.973159670829773,
        -0.32655632495880127,
        -62.44346618652344
      ],
      [
        0.008098097518086433,
        0.32655906677246094,
        1.9731431007385254,
        -46.29322052001953
      ],
      [
        0.0,
        0.0,
        0.0,
        1.0
      ]
    ],
    "dcmmeta_reorient_transform": [
      [
        0.0,
        -1.0,
        0.0,
        95.0
      ],
      [
        1.0,
        0.0,
        0.0,
        0.0
      ],
      [
        0.0,
        0.0,
        1.0,
        0.0
      ],
      [
        0.0,
        0.0,
        0.0,
        1.0
      ]
    ],
    "dcmmeta_shape": [
      96,
      96,
      54,
      164
    ],
    "dcmmeta_slice_dim": 2,
    "dcmmeta_version": 0.6,
    "global": {
      "const": {
        "AcquisitionMatrix": [
          0,
          96,
          96,
          0
        ],
        "Allergies": "No Known Allergies",
        "AngioFlag": "N",
        "BitsAllocated": 16,
        "BitsStored": 12,
        "BodyPartExamined": "HEAD",
        "Columns": 768,
        "EchoNumbers": 1,
        "EchoTime": 25.0,
        "EchoTrainLength": 1,
        "FlipAngle": 50.0,
        "HighBit": 11,
        "ImageOrientationPatient": [
          0.99999157803662,
          0.00067011969073,
          0.00404904870684,
          2.110094e-10,
          0.98657984636313,
          -0.1632795356133
        ],
        "ImagePositionPatient": [
          -767.761392775,
          -788.43868109794,
          91.732777677076
        ],
        "ImageType": [
          "ORIGINAL",
          "PRIMARY",
          "M",
          "ND",
          "ECHO_00",
          "MOSAIC"
        ],
        "ImagedNucleus": "1H",
        "ImagingFrequency": 297.204989,
        "InPlanePhaseEncodingDirection": "ROW",
        "LargestImagePixelValue": 4095,
        "MRAcquisitionType": "2D",
        "MagneticFieldStrength": 6.98,
        "Manufacturer": "SIEMENS",
        "ManufacturerModelName": "Investigational_Device_7T",
        "Modality": "MR",
        "NumberOfAverages": 1.0,
        "NumberOfPhaseEncodingSteps": 94,
        "PercentPhaseFieldOfView": 100.0,
        "PercentSampling": 100.0,
        "PerformedProcedureStepStartTime": "115404.078000",
        "PhotometricInterpretation": "MONOCHROME2",
        "PixelBandwidth": 2003.0,
        "PixelRepresentation": 0,
        "PixelSpacing": [
          2.0,
          2.0
        ],
        "PositionReferenceIndicator": "",
        "ProcedureCodeSequence": [
          {
            "CodeMeaning": "MRI Procedure Limited",
            "CodeValue": "MI01491",
            "CodingSchemeDesignator": "USA Standard",
            "ContextIdentifier": "4000109576"
          }
        ],
        "ProtocolName": "NIH_EPI_2.0iso_TR2_Run02",
        "ReferencedStudySequence": [
          {
            "ReferencedSOPClassUID": "1.2.840.10008.3.1.2.3.1",
            "ReferencedSOPInstanceUID": "1.2.840.113564.9.1.2723958737.61.2.5000075338"
          }
        ],
        "RepetitionTime": 2000.0,
        "RequestedProcedureCodeSequence": [
          {
            "CodeMeaning": "MRI Procedure Limited",
            "CodeValue": "MI01491",
            "CodingSchemeDesignator": "USA Standard",
            "ContextIdentifier": "4000109576"
          }
        ],
        "RequestingService": "MHED",
        "Rows": 768,
        "SAR": 0.0812637748338,
        "SamplesPerPixel": 1,
        "ScanningSequence": "EP",
        "SequenceName": "epfid2d1_96",
        "SequenceVariant": "SK",
        "SeriesDescription": "NIH_EPI_2.0iso_TR2_Run02",
        "SeriesNumber": 6,
        "SliceLocation": -35.082879977569,
        "SliceThickness": 2.0,
        "SmallestImagePixelValue": 0,
        "SoftwareVersions": "syngo MR B17",
        "SpacingBetweenSlices": 2.0000000184226,
        "TransmitCoilName": "32Ch_Head_7T",
        "VariableFlipAngleFlag": "N",
        "WindowCenterWidthExplanation": "Algo1",
        "dBdt": 0.0
      },
      "slices": {}
    },
    "modality": "bold",
    "run_id": 3,
    "session_id": "05",
    "subject_id": "002",
    "task_id": "FullFovNoAttentionTask",
    "time": {
      "samples": {
        "AcquisitionNumber": [
          1,
          2,
          3,
          4,
          5,
          6,
          7,
          8,
          9,
          10,
          11,
          12,
          13,
          14,
          15,
          16,
          17,
          18,
          19,
          20,
          21,
          22,
          23,
          24,
          25,
          26,
          27,
          28,
          29,
          30,
          31,
          32,
          33,
          34,
          35,
          36,
          37,
          38,
          39,
          40,
          41,
          42,
          43,
          44,
          45,
          46,
          47,
          48,
          49,
          50,
          51,
          52,
          53,
          54,
          55,
          56,
          57,
          58,
          59,
          60,
          61,
          62,
          63,
          64,
          65,
          66,
          67,
          68,
          69,
          70,
          71,
          72,
          73,
          74,
          75,
          76,
          77,
          78,
          79,
          80,
          81,
          82,
          83,
          84,
          85,
          86,
          87,
          88,
          89,
          90,
          91,
          92,
          93,
          94,
          95,
          96,
          97,
          98,
          99,
          100,
          101,
          102,
          103,
          104,
          105,
          106,
          107,
          108,
          109,
          110,
          111,
          112,
          113,
          114,
          115,
          116,
          117,
          118,
          119,
          120,
          121,
          122,
          123,
          124,
          125,
          126,
          127,
          128,
          129,
          130,
          131,
          132,
          133,
          134,
          135,
          136,
          137,
          138,
          139,
          140,
          141,
          142,
          143,
          144,
          145,
          146,
          147,
          148,
          149,
          150,
          151,
          152,
          153,
          154,
          155,
          156,
          157,
          158,
          159,
          160,
          161,
          162,
          163,
          164
        ],
        "AcquisitionTime": [
          "122051.267500",
          "122055.282500",
          "122057.292500",
          "122059.300000",
          "122101.307500",
          "122103.315000",
          "122105.322500",
          "122107.332500",
          "122109.340000",
          "122111.347500",
          "122113.355000",
          "122115.362500",
          "122117.372500",
          "122119.380000",
          "122121.387500",
          "122123.395000",
          "122125.405000",
          "122127.412500",
          "122129.420000",
          "122131.427500",
          "122133.435000",
          "122135.445000",
          "122137.452500",
          "122139.460000",
          "122141.467500",
          "122143.475000",
          "122145.485000",
          "122147.492500",
          "122149.500000",
          "122151.507500",
          "122153.517500",
          "122155.525000",
          "122157.532500",
          "122159.540000",
          "122201.547500",
          "122203.557500",
          "122205.565000",
          "122207.572500",
          "122209.580000",
          "122211.587500",
          "122213.597500",
          "122215.605000",
          "122217.612500",
          "122219.620000",
          "122221.630000",
          "122223.637500",
          "122225.645000",
          "122227.652500",
          "122229.660000",
          "122231.670000",
          "122233.677500",
          "122235.685000",
          "122237.692500",
          "122239.700000",
          "122241.710000",
          "122243.717500",
          "122245.725000",
          "122247.732500",
          "122249.740000",
          "122251.750000",
          "122253.757500",
          "122255.765000",
          "122257.772500",
          "122259.782500",
          "122301.790000",
          "122303.797500",
          "122305.805000",
          "122307.812500",
          "122309.822500",
          "122311.830000",
          "122313.837500",
          "122315.845000",
          "122317.852500",
          "122319.862500",
          "122321.870000",
          "122323.877500",
          "122325.885000",
          "122327.895000",
          "122329.902500",
          "122331.910000",
          "122333.917500",
          "122335.925000",
          "122337.935000",
          "122339.942500",
          "122341.950000",
          "122343.957500",
          "122345.965000",
          "122347.975000",
          "122349.982500",
          "122351.990000",
          "122353.997500",
          "122356.007500",
          "122358.015000",
          "122400.022500",
          "122402.030000",
          "122404.037500",
          "122406.047500",
          "122408.055000",
          "122410.062500",
          "122412.070000",
          "122414.077500",
          "122416.087500",
          "122418.095000",
          "122420.102500",
          "122422.110000",
          "122424.117500",
          "122426.127500",
          "122428.135000",
          "122430.142500",
          "122432.150000",
          "122434.160000",
          "122436.167500",
          "122438.175000",
          "122440.182500",
          "122442.190000",
          "122444.200000",
          "122446.207500",
          "122448.215000",
          "122450.222500",
          "122452.230000",
          "122454.240000",
          "122456.247500",
          "122458.255000",
          "122500.262500",
          "122502.272500",
          "122504.280000",
          "122506.287500",
          "122508.295000",
          "122510.302500",
          "122512.312500",
          "122514.320000",
          "122516.327500",
          "122518.335000",
          "122520.342500",
          "122522.352500",
          "122524.360000",
          "122526.367500",
          "122528.375000",
          "122530.385000",
          "122532.392500",
          "122534.400000",
          "122536.407500",
          "122538.415000",
          "122540.425000",
          "122542.432500",
          "122544.440000",
          "122546.447500",
          "122548.455000",
          "122550.465000",
          "122552.472500",
          "122554.480000",
          "122556.487500",
          "122558.495000",
          "122600.505000",
          "122602.512500",
          "122604.520000",
          "122606.527500",
          "122608.537500",
          "122610.545000",
          "122612.552500",
          "122614.560000",
          "122616.567500",
          "122618.577500",
          "122620.585000"
        ],
        "ContentTime": [
          "122135.015000",
          "122135.015000",
          "122135.031000",
          "122135.031000",
          "122135.031000",
          "122135.031000",
          "122135.031000",
          "122135.031000",
          "122135.046000",
          "122135.046000",
          "122135.046000",
          "122135.046000",
          "122135.046000",
          "122135.046000",
          "122135.062000",
          "122135.062000",
          "122135.062000",
          "122135.062000",
          "122135.062000",
          "122135.078000",
          "122135.078000",
          "122215.000000",
          "122215.000000",
          "122215.000000",
          "122215.000000",
          "122215.000000",
          "122215.015000",
          "122215.015000",
          "122215.015000",
          "122215.015000",
          "122215.031000",
          "122215.031000",
          "122215.031000",
          "122215.031000",
          "122215.031000",
          "122215.046000",
          "122215.046000",
          "122215.046000",
          "122215.046000",
          "122215.046000",
          "122215.046000",
          "122255.000000",
          "122255.000000",
          "122255.000000",
          "122255.000000",
          "122255.000000",
          "122255.000000",
          "122255.015000",
          "122255.015000",
          "122255.015000",
          "122255.015000",
          "122255.015000",
          "122255.031000",
          "122255.031000",
          "122255.031000",
          "122255.031000",
          "122255.046000",
          "122255.046000",
          "122255.046000",
          "122255.046000",
          "122255.046000",
          "122335.000000",
          "122335.000000",
          "122335.000000",
          "122335.000000",
          "122335.000000",
          "122335.000000",
          "122335.015000",
          "122335.015000",
          "122335.015000",
          "122335.015000",
          "122335.015000",
          "122335.015000",
          "122335.031000",
          "122335.031000",
          "122335.031000",
          "122335.031000",
          "122335.031000",
          "122335.031000",
          "122335.046000",
          "122335.046000",
          "122415.000000",
          "122415.000000",
          "122415.000000",
          "122415.000000",
          "122415.000000",
          "122415.000000",
          "122415.015000",
          "122415.015000",
          "122415.015000",
          "122415.015000",
          "122415.015000",
          "122415.015000",
          "122415.031000",
          "122415.031000",
          "122415.046000",
          "122415.046000",
          "122415.046000",
          "122415.046000",
          "122415.046000",
          "122415.046000",
          "122435.000000",
          "122435.000000",
          "122435.000000",
          "122435.000000",
          "122435.015000",
          "122435.015000",
          "122435.015000",
          "122435.015000",
          "122435.015000",
          "122435.015000",
          "122515.000000",
          "122515.000000",
          "122515.000000",
          "122515.000000",
          "122515.000000",
          "122515.000000",
          "122515.015000",
          "122515.015000",
          "122515.015000",
          "122515.015000",
          "122515.015000",
          "122515.015000",
          "122515.031000",
          "122515.031000",
          "122515.031000",
          "122515.031000",
          "122515.046000",
          "122515.046000",
          "122515.046000",
          "122515.046000",
          "122555.000000",
          "122555.000000",
          "122555.000000",
          "122555.000000",
          "122555.000000",
          "122555.000000",
          "122555.015000",
          "122555.015000",
          "122555.015000",
          "122555.015000",
          "122555.015000",
          "122555.031000",
          "122555.031000",
          "122555.031000",
          "122555.031000",
          "122555.031000",
          "122555.046000",
          "122555.046000",
          "122555.046000",
          "122555.046000",
          "122620.656000",
          "122620.656000",
          "122620.656000",
          "122620.656000",
          "122620.671000",
          "122620.671000",
          "122620.671000",
          "122620.687000",
          "122620.687000",
          "122620.687000",
          "122620.687000",
          "122620.687000",
          "122620.703000"
        ],
        "InstanceCreationTime": [
          "122135.015000",
          "122135.015000",
          "122135.031000",
          "122135.031000",
          "122135.031000",
          "122135.031000",
          "122135.031000",
          "122135.031000",
          "122135.046000",
          "122135.046000",
          "122135.046000",
          "122135.046000",
          "122135.046000",
          "122135.046000",
          "122135.062000",
          "122135.062000",
          "122135.062000",
          "122135.062000",
          "122135.062000",
          "122135.078000",
          "122135.078000",
          "122215.000000",
          "122215.000000",
          "122215.000000",
          "122215.000000",
          "122215.000000",
          "122215.015000",
          "122215.015000",
          "122215.015000",
          "122215.015000",
          "122215.031000",
          "122215.031000",
          "122215.031000",
          "122215.031000",
          "122215.031000",
          "122215.046000",
          "122215.046000",
          "122215.046000",
          "122215.046000",
          "122215.046000",
          "122215.046000",
          "122255.000000",
          "122255.000000",
          "122255.000000",
          "122255.000000",
          "122255.000000",
          "122255.000000",
          "122255.015000",
          "122255.015000",
          "122255.015000",
          "122255.015000",
          "122255.015000",
          "122255.031000",
          "122255.031000",
          "122255.031000",
          "122255.031000",
          "122255.046000",
          "122255.046000",
          "122255.046000",
          "122255.046000",
          "122255.046000",
          "122335.000000",
          "122335.000000",
          "122335.000000",
          "122335.000000",
          "122335.000000",
          "122335.000000",
          "122335.015000",
          "122335.015000",
          "122335.015000",
          "122335.015000",
          "122335.015000",
          "122335.015000",
          "122335.031000",
          "122335.031000",
          "122335.031000",
          "122335.031000",
          "122335.031000",
          "122335.031000",
          "122335.046000",
          "122335.046000",
          "122415.000000",
          "122415.000000",
          "122415.000000",
          "122415.000000",
          "122415.000000",
          "122415.000000",
          "122415.015000",
          "122415.015000",
          "122415.015000",
          "122415.015000",
          "122415.015000",
          "122415.015000",
          "122415.031000",
          "122415.031000",
          "122415.046000",
          "122415.046000",
          "122415.046000",
          "122415.046000",
          "122415.046000",
          "122415.046000",
          "122435.000000",
          "122435.000000",
          "122435.000000",
          "122435.000000",
          "122435.015000",
          "122435.015000",
          "122435.015000",
          "122435.015000",
          "122435.015000",
          "122435.015000",
          "122515.000000",
          "122515.000000",
          "122515.000000",
          "122515.000000",
          "122515.000000",
          "122515.000000",
          "122515.015000",
          "122515.015000",
          "122515.015000",
          "122515.015000",
          "122515.015000",
          "122515.015000",
          "122515.031000",
          "122515.031000",
          "122515.031000",
          "122515.031000",
          "122515.046000",
          "122515.046000",
          "122515.046000",
          "122515.046000",
          "122555.000000",
          "122555.000000",
          "122555.000000",
          "122555.000000",
          "122555.000000",
          "122555.000000",
          "122555.015000",
          "122555.015000",
          "122555.015000",
          "122555.015000",
          "122555.015000",
          "122555.031000",
          "122555.031000",
          "122555.031000",
          "122555.031000",
          "122555.031000",
          "122555.046000",
          "122555.046000",
          "122555.046000",
          "122555.046000",
          "122620.656000",
          "122620.656000",
          "122620.656000",
          "122620.656000",
          "122620.671000",
          "122620.671000",
          "122620.671000",
          "122620.687000",
          "122620.687000",
          "122620.687000",
          "122620.687000",
          "122620.687000",
          "122620.703000"
        ],
        "InstanceNumber": [
          1,
          2,
          3,
          4,
          5,
          6,
          7,
          8,
          9,
          10,
          11,
          12,
          13,
          14,
          15,
          16,
          17,
          18,
          19,
          20,
          21,
          22,
          23,
          24,
          25,
          26,
          27,
          28,
          29,
          30,
          31,
          32,
          33,
          34,
          35,
          36,
          37,
          38,
          39,
          40,
          41,
          42,
          43,
          44,
          45,
          46,
          47,
          48,
          49,
          50,
          51,
          52,
          53,
          54,
          55,
          56,
          57,
          58,
          59,
          60,
          61,
          62,
          63,
          64,
          65,
          66,
          67,
          68,
          69,
          70,
          71,
          72,
          73,
          74,
          75,
          76,
          77,
          78,
          79,
          80,
          81,
          82,
          83,
          84,
          85,
          86,
          87,
          88,
          89,
          90,
          91,
          92,
          93,
          94,
          95,
          96,
          97,
          98,
          99,
          100,
          101,
          102,
          103,
          104,
          105,
          106,
          107,
          108,
          109,
          110,
          111,
          112,
          113,
          114,
          115,
          116,
          117,
          118,
          119,
          120,
          121,
          122,
          123,
          124,
          125,
          126,
          127,
          128,
          129,
          130,
          131,
          132,
          133,
          134,
          135,
          136,
          137,
          138,
          139,
          140,
          141,
          142,
          143,
          144,
          145,
          146,
          147,
          148,
          149,
          150,
          151,
          152,
          153,
          154,
          155,
          156,
          157,
          158,
          159,
          160,
          161,
          162,
          163,
          164
        ],
        "WindowCenter": [
          1047.0,
          1043.0,
          1044.0,
          1045.0,
          1045.0,
          1043.0,
          1043.0,
          1044.0,
          1044.0,
          1044.0,
          1043.0,
          1045.0,
          1046.0,
          1045.0,
          1045.0,
          1044.0,
          1045.0,
          1045.0,
          1046.0,
          1045.0,
          1046.0,
          1046.0,
          1044.0,
          1044.0,
          1045.0,
          1044.0,
          1045.0,
          1044.0,
          1043.0,
          1047.0,
          1046.0,
          1048.0,
          1047.0,
          1046.0,
          1046.0,
          1045.0,
          1046.0,
          1045.0,
          1046.0,
          1047.0,
          1047.0,
          1048.0,
          1047.0,
          1048.0,
          1046.0,
          1046.0,
          1047.0,
          1045.0,
          1044.0,
          1048.0,
          1046.0,
          1045.0,
          1047.0,
          1047.0,
          1047.0,
          1048.0,
          1046.0,
          1048.0,
          1047.0,
          1046.0,
          1046.0,
          1048.0,
          1044.0,
          1046.0,
          1045.0,
          1044.0,
          1046.0,
          1044.0,
          1044.0,
          1046.0,
          1048.0,
          1047.0,
          1046.0,
          1043.0,
          1045.0,
          1045.0,
          1046.0,
          1047.0,
          1046.0,
          1049.0,
          1049.0,
          1048.0,
          1045.0,
          1042.0,
          1044.0,
          1044.0,
          1047.0,
          1046.0,
          1045.0,
          1044.0,
          1043.0,
          1045.0,
          1046.0,
          1044.0,
          1044.0,
          1044.0,
          1044.0,
          1045.0,
          1047.0,
          1047.0,
          1045.0,
          1046.0,
          1045.0,
          1047.0,
          1049.0,
          1051.0,
          1048.0,
          1046.0,
          1045.0,
          1045.0,
          1046.0,
          1048.0,
          1048.0,
          1049.0,
          1047.0,
          1046.0,
          1046.0,
          1046.0,
          1046.0,
          1047.0,
          1046.0,
          1046.0,
          1046.0,
          1045.0,
          1045.0,
          1048.0,
          1048.0,
          1047.0,
          1046.0,
          1046.0,
          1049.0,
          1048.0,
          1048.0,
          1046.0,
          1044.0,
          1047.0,
          1048.0,
          1047.0,
          1047.0,
          1047.0,
          1046.0,
          1048.0,
          1048.0,
          1049.0,
          1048.0,
          1045.0,
          1045.0,
          1047.0,
          1047.0,
          1049.0,
          1052.0,
          1050.0,
          1047.0,
          1048.0,
          1047.0,
          1049.0,
          1049.0,
          1048.0,
          1049.0,
          1048.0,
          1048.0,
          1047.0,
          1046.0,
          1046.0
        ],
        "WindowWidth": [
          2793.0,
          2782.0,
          2788.0,
          2793.0,
          2787.0,
          2777.0,
          2784.0,
          2789.0,
          2783.0,
          2788.0,
          2780.0,
          2793.0,
          2792.0,
          2787.0,
          2788.0,
          2784.0,
          2792.0,
          2791.0,
          2790.0,
          2792.0,
          2792.0,
          2797.0,
          2786.0,
          2788.0,
          2789.0,
          2788.0,
          2789.0,
          2783.0,
          2786.0,
          2799.0,
          2799.0,
          2801.0,
          2795.0,
          2797.0,
          2796.0,
          2796.0,
          2800.0,
          2794.0,
          2794.0,
          2801.0,
          2797.0,
          2800.0,
          2800.0,
          2805.0,
          2798.0,
          2800.0,
          2796.0,
          2790.0,
          2790.0,
          2797.0,
          2789.0,
          2789.0,
          2793.0,
          2799.0,
          2794.0,
          2791.0,
          2792.0,
          2803.0,
          2802.0,
          2791.0,
          2799.0,
          2793.0,
          2790.0,
          2796.0,
          2790.0,
          2789.0,
          2797.0,
          2791.0,
          2792.0,
          2800.0,
          2809.0,
          2802.0,
          2791.0,
          2785.0,
          2794.0,
          2793.0,
          2795.0,
          2798.0,
          2796.0,
          2811.0,
          2805.0,
          2796.0,
