{
  "aor": 0.000903719512195122,
  "aqi": 0.010156580792682926,
  "bids_meta": {
    "AcquisitionMatrixPE": 96,
    "AcquisitionNumber": 1,
    "AcquisitionTime": "12:27:2.087500",
    "BandwidthPerPixelPhaseEncode": 52.083,
    "BaseResolution": 96,
    "BodyPartExamined": "HEAD",
    "ConversionSoftware": "dcm2niix",
    "ConversionSoftwareVersion": "v1.0.20180622 GCC6.3.0",
    "DerivedVendorReportedEchoSpacing": 0.000600004,
    "DeviceSerialNumber": "18926",
    "DwellTime": 2.6e-06,
    "EchoTime": 0.025,
    "EffectiveEchoSpacing": 0.000200001,
    "FlipAngle": 50,
    "ImageOrientationPatientDICOM": [
      0.999992,
      0.00067012,
      0.00404905,
      2.11009e-10,
      0.98658,
      -0.16328
    ],
    "ImageType": [
      "ORIGINAL",
      "PRIMARY",
      "M",
      "ND",
      "ECHO",
      "00",
      "MOSAIC"
    ],
    "InPlanePhaseEncodingDirectionDICOM": "ROW",
    "InstitutionName": "NIMH",
    "InstitutionalDepartmentName": "Department",
    "MRAcquisitionType": "2D",
    "MagneticFieldStrength": 6.98,
    "Manufacturer": "Siemens",
    "ManufacturersModelName": "Investigational_Device_7T",
    "Modality": "MR",
    "ParallelReductionFactorInPlane": 3,
    "PartialFourier": 1,
    "PatientPosition": "HFS",
    "PercentPhaseFOV": 100,
    "PhaseEncodingDirection": "i",
    "PhaseEncodingSteps": 94,
    "PhaseResolution": 1,
    "PixelBandwidth": 2003,
    "ProcedureStepDescription": "MRI_Procedure_Limited",
    "ProtocolName": "NIH_EPI_2.0iso_TR2_Run03",
    "PulseSequenceDetails": "%CustomerSeq%_inati_nih_epi",
    "ReceiveCoilName": "32Ch_Head_7T",
    "ReconMatrixPE": 96,
    "RepetitionTime": 2,
    "SAR": 0.0812638,
    "ScanningSequence": "EP",
    "SequenceName": "epfid2d1_96",
    "SequenceVariant": "SK",
    "SeriesDescription": "NIH_EPI_2.0iso_TR2_Run03",
    "SeriesNumber": 7,
    "ShimSetting": [
      -115,
      322,
      1244,
      1955,
      -97,
      654,
      347,
      -236
    ],
    "SliceThickness": 2,
    "SliceTiming": [
      1.0025,
      0,
      1.04,
      0.0375,
      1.0775,
      0.075,
      1.115,
      0.11,
      1.1525,
      0.1475,
      1.19,
      0.185,
      1.2275,
      0.2225,
      1.2625,
      0.26,
      1.3,
      0.2975,
      1.3375,
      0.335,
      1.375,
      0.3725,
      1.4125,
      0.4075,
      1.45,
      0.445,
      1.4875,
      0.4825,
      1.525,
      0.52,
      1.56,
      0.5575,
      1.5975,
      0.595,
      1.635,
      0.6325,
      1.6725,
      0.67,
      1.71,
      0.705,
      1.7475,
      0.7425,
      1.785,
      0.78,
      1.8225,
      0.8175,
      1.8575,
      0.855,
      1.895,
      0.8925,
      1.9325,
      0.93,
      1.97,
      0.9675
    ],
    "SoftwareVersions": "syngo_MR_B17",
    "SpacingBetweenSlices": 2,
    "StationName": "FMRIFD7T",
    "TaskName": "FullFovNoAttentionTask",
    "TotalReadoutTime": 0.0190001,
    "TxRefAmp": 287,
    "dataset": "ds001555",
    "dcmmeta_affine": [
      [
        -1.9999831914901733,
        4.2201880878778297e-10,
        0.008208253420889378,
        95.76705169677734
      ],
      [
        -0.0013402394251897931,
        1.973159670829773,
        -0.32655632495880127,
        -62.44346618652344
      ],
      [
        0.008098097518086433,
        0.32655906677246094,
        1.9731431007385254,
        -46.29322052001953
      ],
      [
        0.0,
        0.0,
        0.0,
        1.0
      ]
    ],
    "dcmmeta_reorient_transform": [
      [
        0.0,
        -1.0,
        0.0,
        95.0
      ],
      [
        1.0,
        0.0,
        0.0,
        0.0
      ],
      [
        0.0,
        0.0,
        1.0,
        0.0
      ],
      [
        0.0,
        0.0,
        0.0,
        1.0
      ]
    ],
    "dcmmeta_shape": [
      96,
      96,
      54,
      164
    ],
    "dcmmeta_slice_dim": 2,
    "dcmmeta_version": 0.6,
    "global": {
      "const": {
        "AcquisitionMatrix": [
          0,
          96,
          96,
          0
        ],
        "Allergies": "No Known Allergies",
        "AngioFlag": "N",
        "BitsAllocated": 16,
        "BitsStored": 12,
        "BodyPartExamined": "HEAD",
        "Columns": 768,
        "EchoNumbers": 1,
        "EchoTime": 25.0,
        "EchoTrainLength": 1,
        "FlipAngle": 50.0,
        "HighBit": 11,
        "ImageOrientationPatient": [
          0.99999157803662,
          0.00067011969073,
          0.00404904870684,
          2.110094e-10,
          0.98657984636313,
          -0.1632795356133
        ],
        "ImagePositionPatient": [
          -767.761392775,
          -788.43868109794,
          91.732777677076
        ],
        "ImageType": [
          "ORIGINAL",
          "PRIMARY",
          "M",
          "ND",
          "ECHO_00",
          "MOSAIC"
        ],
        "ImagedNucleus": "1H",
        "ImagingFrequency": 297.205006,
        "InPlanePhaseEncodingDirection": "ROW",
        "LargestImagePixelValue": 4095,
        "MRAcquisitionType": "2D",
        "MagneticFieldStrength": 6.98,
        "Manufacturer": "SIEMENS",
        "ManufacturerModelName": "Investigational_Device_7T",
        "Modality": "MR",
        "NumberOfAverages": 1.0,
        "NumberOfPhaseEncodingSteps": 94,
        "PercentPhaseFieldOfView": 100.0,
        "PercentSampling": 100.0,
        "PerformedProcedureStepStartTime": "115404.078000",
        "PhotometricInterpretation": "MONOCHROME2",
        "PixelBandwidth": 2003.0,
        "PixelRepresentation": 0,
        "PixelSpacing": [
          2.0,
          2.0
        ],
        "PositionReferenceIndicator": "",
        "ProcedureCodeSequence": [
          {
            "CodeMeaning": "MRI Procedure Limited",
            "CodeValue": "MI01491",
            "CodingSchemeDesignator": "USA Standard",
            "ContextIdentifier": "4000109576"
          }
        ],
        "ProtocolName": "NIH_EPI_2.0iso_TR2_Run03",
        "ReferencedStudySequence": [
          {
            "ReferencedSOPClassUID": "1.2.840.10008.3.1.2.3.1",
            "ReferencedSOPInstanceUID": "1.2.840.113564.9.1.2723958737.61.2.5000075338"
          }
        ],
        "RepetitionTime": 2000.0,
        "RequestedProcedureCodeSequence": [
          {
            "CodeMeaning": "MRI Procedure Limited",
            "CodeValue": "MI01491",
            "CodingSchemeDesignator": "USA Standard",
            "ContextIdentifier": "4000109576"
          }
        ],
        "RequestingService": "MHED",
        "Rows": 768,
        "SAR": 0.0812637748338,
        "SamplesPerPixel": 1,
        "ScanningSequence": "EP",
        "SequenceName": "epfid2d1_96",
        "SequenceVariant": "SK",
        "SeriesDescription": "NIH_EPI_2.0iso_TR2_Run03",
        "SeriesNumber": 7,
        "SliceLocation": -35.082879977569,
        "SliceThickness": 2.0,
        "SmallestImagePixelValue": 0,
        "SoftwareVersions": "syngo MR B17",
        "SpacingBetweenSlices": 2.0000000184226,
        "TransmitCoilName": "32Ch_Head_7T",
        "VariableFlipAngleFlag": "N",
        "WindowCenterWidthExplanation": "Algo1",
        "dBdt": 0.0
      },
      "slices": {}
    },
    "modality": "bold",
    "run_id": 4,
    "session_id": "05",
    "subject_id": "002",
    "task_id": "FullFovNoAttentionTask",
    "time": {
      "samples": {
        "AcquisitionNumber": [
          1,
          2,
          3,
          4,
          5,
          6,
          7,
          8,
          9,
          10,
          11,
          12,
          13,
          14,
          15,
          16,
          17,
          18,
          19,
          20,
          21,
          22,
          23,
          24,
          25,
          26,
          27,
          28,
          29,
          30,
          31,
          32,
          33,
          34,
          35,
          36,
          37,
          38,
          39,
          40,
          41,
          42,
          43,
          44,
          45,
          46,
          47,
          48,
          49,
          50,
          51,
          52,
          53,
          54,
          55,
          56,
          57,
          58,
          59,
          60,
          61,
          62,
          63,
          64,
          65,
          66,
          67,
          68,
          69,
          70,
          71,
          72,
          73,
          74,
          75,
          76,
          77,
          78,
          79,
          80,
          81,
          82,
          83,
          84,
          85,
          86,
          87,
          88,
          89,
          90,
          91,
          92,
          93,
          94,
          95,
          96,
          97,
          98,
          99,
          100,
          101,
          102,
          103,
          104,
          105,
          106,
          107,
          108,
          109,
          110,
          111,
          112,
          113,
          114,
          115,
          116,
          117,
          118,
          119,
          120,
          121,
          122,
          123,
          124,
          125,
          126,
          127,
          128,
          129,
          130,
          131,
          132,
          133,
          134,
          135,
          136,
          137,
          138,
          139,
          140,
          141,
          142,
          143,
          144,
          145,
          146,
          147,
          148,
          149,
          150,
          151,
          152,
          153,
          154,
          155,
          156,
          157,
          158,
          159,
          160,
          161,
          162,
          163,
          164
        ],
        "AcquisitionTime": [
          "122702.087500",
          "122706.105000",
          "122708.112500",
          "122710.120000",
          "122712.127500",
          "122714.137500",
          "122716.145000",
          "122718.152500",
          "122720.160000",
          "122722.170000",
          "122724.177500",
          "122726.185000",
          "122728.192500",
          "122730.200000",
          "122732.210000",
          "122734.217500",
          "122736.225000",
          "122738.232500",
          "122740.240000",
          "122742.250000",
          "122744.257500",
          "122746.265000",
          "122748.272500",
          "122750.282500",
          "122752.290000",
          "122754.297500",
          "122756.305000",
          "122758.312500",
          "122800.322500",
          "122802.330000",
          "122804.337500",
          "122806.345000",
          "122808.352500",
          "122810.362500",
          "122812.370000",
          "122814.377500",
          "122816.385000",
          "122818.392500",
          "122820.402500",
          "122822.410000",
          "122824.417500",
          "122826.425000",
          "122828.435000",
          "122830.442500",
          "122832.450000",
          "122834.457500",
          "122836.465000",
          "122838.475000",
          "122840.482500",
          "122842.490000",
          "122844.497500",
          "122846.505000",
          "122848.515000",
          "122850.522500",
          "122852.530000",
          "122854.537500",
          "122856.547500",
          "122858.555000",
          "122900.562500",
          "122902.570000",
          "122904.577500",
          "122906.587500",
          "122908.595000",
          "122910.602500",
          "122912.610000",
          "122914.617500",
          "122916.627500",
          "122918.635000",
          "122920.642500",
          "122922.650000",
          "122924.660000",
          "122926.667500",
          "122928.675000",
          "122930.682500",
          "122932.690000",
          "122934.700000",
          "122936.707500",
          "122938.715000",
          "122940.722500",
          "122942.730000",
          "122944.740000",
          "122946.747500",
          "122948.755000",
          "122950.762500",
          "122952.770000",
          "122954.780000",
          "122956.787500",
          "122958.795000",
          "123000.802500",
          "123002.812500",
          "123004.820000",
          "123006.827500",
          "123008.835000",
          "123010.842500",
          "123012.852500",
          "123014.860000",
          "123016.867500",
          "123018.875000",
          "123020.882500",
          "123022.892500",
          "123024.900000",
          "123026.907500",
          "123028.915000",
          "123030.925000",
          "123032.932500",
          "123034.940000",
          "123036.947500",
          "123038.955000",
          "123040.965000",
          "123042.972500",
          "123044.980000",
          "123046.987500",
          "123048.995000",
          "123051.005000",
          "123053.012500",
          "123055.020000",
          "123057.027500",
          "123059.037500",
          "123101.045000",
          "123103.052500",
          "123105.060000",
          "123107.067500",
          "123109.077500",
          "123111.085000",
          "123113.092500",
          "123115.100000",
          "123117.107500",
          "123119.117500",
          "123121.125000",
          "123123.132500",
          "123125.140000",
          "123127.147500",
          "123129.157500",
          "123131.165000",
          "123133.172500",
          "123135.180000",
          "123137.190000",
          "123139.197500",
          "123141.205000",
          "123143.212500",
          "123145.220000",
          "123147.230000",
          "123149.237500",
          "123151.245000",
          "123153.252500",
          "123155.260000",
          "123157.270000",
          "123159.277500",
          "123201.285000",
          "123203.292500",
          "123205.302500",
          "123207.310000",
          "123209.317500",
          "123211.325000",
          "123213.332500",
          "123215.342500",
          "123217.350000",
          "123219.357500",
          "123221.365000",
          "123223.372500",
          "123225.382500",
          "123227.390000",
          "123229.397500",
          "123231.405000"
        ],
        "ContentTime": [
          "122755.593000",
          "122755.609000",
          "122755.609000",
          "122755.609000",
          "122755.609000",
          "122755.609000",
          "122755.609000",
          "122755.625000",
          "122755.625000",
          "122755.625000",
          "122755.625000",
          "122755.625000",
          "122755.625000",
          "122755.625000",
          "122755.640000",
          "122755.640000",
          "122755.640000",
          "122755.640000",
          "122755.640000",
          "122755.656000",
          "122755.656000",
          "122755.656000",
          "122755.656000",
          "122755.656000",
          "122755.656000",
          "122835.593000",
          "122835.593000",
          "122835.593000",
          "122835.593000",
          "122835.609000",
          "122835.609000",
          "122835.609000",
          "122835.609000",
          "122835.609000",
          "122835.625000",
          "122835.625000",
          "122835.625000",
          "122835.625000",
          "122835.625000",
          "122835.625000",
          "122835.640000",
          "122835.640000",
          "122835.640000",
          "122835.640000",
          "122835.640000",
          "122915.593000",
          "122915.593000",
          "122915.593000",
          "122915.593000",
          "122915.593000",
          "122915.593000",
          "122915.609000",
          "122915.609000",
          "122915.609000",
          "122915.609000",
          "122915.609000",
          "122915.609000",
          "122915.609000",
          "122915.625000",
          "122915.625000",
          "122915.625000",
          "122915.625000",
          "122915.625000",
          "122915.640000",
          "122915.640000",
          "122955.593000",
          "122955.593000",
          "122955.593000",
          "122955.593000",
          "122955.593000",
          "122955.593000",
          "122955.609000",
          "122955.609000",
          "122955.609000",
          "122955.609000",
          "122955.625000",
          "122955.625000",
          "122955.625000",
          "122955.625000",
          "122955.625000",
          "122955.625000",
          "122955.625000",
          "122955.640000",
          "122955.640000",
          "122955.640000",
          "123035.593000",
          "123035.593000",
          "123035.593000",
          "123035.593000",
          "123035.593000",
          "123035.593000",
          "123035.609000",
          "123035.609000",
          "123035.609000",
          "123035.609000",
          "123035.625000",
          "123035.625000",
          "123035.625000",
          "123035.625000",
          "123035.625000",
          "123035.625000",
          "123035.640000",
          "123035.640000",
          "123035.640000",
          "123035.640000",
          "123115.593000",
          "123115.593000",
          "123115.593000",
          "123115.593000",
          "123115.593000",
          "123115.593000",
          "123115.609000",
          "123115.609000",
          "123115.609000",
          "123115.625000",
          "123115.625000",
          "123115.625000",
          "123115.625000",
          "123115.625000",
          "123115.640000",
          "123115.640000",
          "123115.640000",
          "123115.640000",
          "123115.640000",
          "123115.656000",
          "123155.593000",
          "123155.593000",
          "123155.593000",
          "123155.593000",
          "123155.593000",
          "123155.593000",
          "123155.609000",
          "123155.609000",
          "123155.609000",
          "123155.625000",
          "123155.625000",
          "123155.625000",
          "123155.625000",
          "123155.625000",
          "123155.625000",
          "123155.625000",
          "123155.640000",
          "123155.656000",
          "123155.656000",
          "123155.656000",
          "123231.828000",
          "123231.843000",
          "123231.843000",
          "123231.843000",
          "123231.843000",
          "123231.843000",
          "123231.843000",
          "123231.859000",
          "123231.859000",
          "123231.859000",
          "123231.859000",
          "123231.859000",
          "123231.859000",
          "123231.875000",
          "123231.875000",
          "123231.875000",
          "123231.875000",
          "123231.875000",
          "123231.875000"
        ],
        "InstanceCreationTime": [
          "122755.593000",
          "122755.609000",
          "122755.609000",
          "122755.609000",
          "122755.609000",
          "122755.609000",
          "122755.609000",
          "122755.625000",
          "122755.625000",
          "122755.625000",
          "122755.625000",
          "122755.625000",
          "122755.625000",
          "122755.625000",
          "122755.640000",
          "122755.640000",
          "122755.640000",
          "122755.640000",
          "122755.640000",
          "122755.656000",
          "122755.656000",
          "122755.656000",
          "122755.656000",
          "122755.656000",
          "122755.656000",
          "122835.593000",
          "122835.593000",
          "122835.593000",
          "122835.593000",
          "122835.609000",
          "122835.609000",
          "122835.609000",
          "122835.609000",
          "122835.609000",
          "122835.625000",
          "122835.625000",
          "122835.625000",
          "122835.625000",
          "122835.625000",
          "122835.625000",
          "122835.640000",
          "122835.640000",
          "122835.640000",
          "122835.640000",
          "122835.640000",
          "122915.593000",
          "122915.593000",
          "122915.593000",
          "122915.593000",
          "122915.593000",
          "122915.593000",
          "122915.609000",
          "122915.609000",
          "122915.609000",
          "122915.609000",
          "122915.609000",
          "122915.609000",
          "122915.609000",
          "122915.625000",
          "122915.625000",
          "122915.625000",
          "122915.625000",
          "122915.625000",
          "122915.640000",
          "122915.640000",
          "122955.593000",
          "122955.593000",
          "122955.593000",
          "122955.593000",
          "122955.593000",
          "122955.593000",
          "122955.609000",
          "122955.609000",
          "122955.609000",
          "122955.609000",
          "122955.625000",
          "122955.625000",
          "122955.625000",
          "122955.625000",
          "122955.625000",
          "122955.625000",
          "122955.625000",
          "122955.640000",
          "122955.640000",
          "122955.640000",
          "123035.593000",
          "123035.593000",
          "123035.593000",
          "123035.593000",
          "123035.593000",
          "123035.593000",
          "123035.609000",
          "123035.609000",
          "123035.609000",
          "123035.609000",
          "123035.625000",
          "123035.625000",
          "123035.625000",
          "123035.625000",
          "123035.625000",
          "123035.625000",
          "123035.640000",
          "123035.640000",
          "123035.640000",
          "123035.640000",
          "123115.593000",
          "123115.593000",
          "123115.593000",
          "123115.593000",
          "123115.593000",
          "123115.593000",
          "123115.609000",
          "123115.609000",
          "123115.609000",
          "123115.625000",
          "123115.625000",
          "123115.625000",
          "123115.625000",
          "123115.625000",
          "123115.640000",
          "123115.640000",
          "123115.640000",
          "123115.640000",
          "123115.640000",
          "123115.656000",
          "123155.593000",
          "123155.593000",
          "123155.593000",
          "123155.593000",
          "123155.593000",
          "123155.593000",
          "123155.609000",
          "123155.609000",
          "123155.609000",
          "123155.625000",
          "123155.625000",
          "123155.625000",
          "123155.625000",
          "123155.625000",
          "123155.625000",
          "123155.625000",
          "123155.640000",
          "123155.656000",
          "123155.656000",
          "123155.656000",
          "123231.828000",
          "123231.843000",
          "123231.843000",
          "123231.843000",
          "123231.843000",
          "123231.843000",
          "123231.843000",
          "123231.859000",
          "123231.859000",
          "123231.859000",
          "123231.859000",
          "123231.859000",
          "123231.859000",
          "123231.875000",
          "123231.875000",
          "123231.875000",
          "123231.875000",
          "123231.875000",
          "123231.875000"
        ],
        "InstanceNumber": [
          1,
          2,
          3,
          4,
          5,
          6,
          7,
          8,
          9,
          10,
          11,
          12,
          13,
          14,
          15,
          16,
          17,
          18,
          19,
          20,
          21,
          22,
          23,
          24,
          25,
          26,
          27,
          28,
          29,
          30,
          31,
          32,
          33,
          34,
          35,
          36,
          37,
          38,
          39,
          40,
          41,
          42,
          43,
          44,
          45,
          46,
          47,
          48,
          49,
          50,
          51,
          52,
          53,
          54,
          55,
          56,
          57,
          58,
          59,
          60,
          61,
          62,
          63,
          64,
          65,
          66,
          67,
          68,
          69,
          70,
          71,
          72,
          73,
          74,
          75,
          76,
          77,
          78,
          79,
          80,
          81,
          82,
          83,
          84,
          85,
          86,
          87,
          88,
          89,
          90,
          91,
          92,
          93,
          94,
          95,
          96,
          97,
          98,
          99,
          100,
          101,
          102,
          103,
          104,
          105,
          106,
          107,
          108,
          109,
          110,
          111,
          112,
          113,
          114,
          115,
          116,
          117,
          118,
          119,
          120,
          121,
          122,
          123,
          124,
          125,
          126,
          127,
          128,
          129,
          130,
          131,
          132,
          133,
          134,
          135,
          136,
          137,
          138,
          139,
          140,
          141,
          142,
          143,
          144,
          145,
          146,
          147,
          148,
          149,
          150,
          151,
          152,
          153,
          154,
          155,
          156,
          157,
          158,
          159,
          160,
          161,
          162,
          163,
          164
        ],
        "WindowCenter": [
          1049.0,
          1045.0,
          1045.0,
          1047.0,
          1045.0,
          1046.0,
          1047.0,
          1047.0,
          1047.0,
          1046.0,
          1045.0,
          1046.0,
          1046.0,
          1044.0,
          1046.0,
          1045.0,
          1045.0,
          1046.0,
          1046.0,
          1046.0,
          1046.0,
          1049.0,
          1047.0,
          1047.0,
          1046.0,
          1047.0,
          1045.0,
          1044.0,
          1045.0,
          1047.0,
          1045.0,
          1045.0,
          1046.0,
          1046.0,
          1046.0,
          1046.0,
          1046.0,
          1047.0,
          1046.0,
          1047.0,
          1047.0,
          1047.0,
          1045.0,
          1044.0,
          1046.0,
          1050.0,
          1048.0,
          1046.0,
          1046.0,
          1045.0,
          1047.0,
          1046.0,
          1046.0,
          1046.0,
          1046.0,
          1048.0,
          1047.0,
          1044.0,
          1042.0,
          1041.0,
          1043.0,
          1047.0,
          1047.0,
          1043.0,
          1042.0,
          1042.0,
          1041.0,
          1041.0,
          1045.0,
          1045.0,
          1044.0,
          1043.0,
          1045.0,
          1044.0,
          1045.0,
          1045.0,
          1046.0,
          1046.0,
          1046.0,
          1045.0,
          1046.0,
          1046.0,
          1047.0,
          1046.0,
          1044.0,
          1046.0,
          1045.0,
          1047.0,
          1048.0,
          1046.0,
          1046.0,
          1046.0,
          1046.0,
          1048.0,
          1047.0,
          1045.0,
          1044.0,
          1044.0,
          1045.0,
          1047.0,
          1046.0,
          1046.0,
          1047.0,
          1048.0,
          1047.0,
          1046.0,
          1048.0,
          1047.0,
          1046.0,
          1045.0,
          1046.0,
          1046.0,
          1046.0,
          1045.0,
          1047.0,
          1047.0,
          1049.0,
          1048.0,
          1048.0,
          1047.0,
          1046.0,
          1045.0,
          1046.0,
          1046.0,
          1044.0,
          1044.0,
          1046.0,
          1047.0,
          1048.0,
          1050.0,
          1048.0,
          1045.0,
          1048.0,
          1046.0,
          1045.0,
          1048.0,
          1046.0,
          1045.0,
          1047.0,
          1048.0,
          1047.0,
          1045.0,
          1046.0,
          1046.0,
          1046.0,
          1046.0,
          1046.0,
          1048.0,
          1048.0,
          1048.0,
          1047.0,
          1049.0,
          1047.0,
          1049.0,
          1048.0,
          1047.0,
          1047.0,
          1049.0,
          1049.0,
          1049.0,
          1048.0,
          1049.0,
          1050.0,
          1051.0
        ],
        "WindowWidth": [
          2802.0,
          2795.0,
          2794.0,
          2799.0,
          2796.0,
          2801.0,
          2808.0,
          2798.0,
          2805.0,
          2798.0,
          2793.0,
          2800.0,
          2797.0,
          2790.0,
          2798.0,
          2795.0,
          2790.0,
          2799.0,
          2795.0,
          2795.0,
          2796.0,
          2804.0,
          2807.0,
          2806.0,
          2803.0,
          2799.0,
          2790.0,
          2784.0,
          2793.0,
          2795.0,
          2793.0,
          2791.0,
          2795.0,
          2793.0,
          2797.0,
          2796.0,
          2803.0,
          2801.0,
          2809.0,
          2808.0,
          2809.0,
          2806.0,
          2799.0,
          2798.0,
          2808.0,
          2818.0,
          2800.0,
          2795.0,
          2794.0,
          2796.0,
          2804.0,
          2793.0,
          2790.0,
          2792.0,
          2801.0,
          2809.0,
          2803.0,
          2790.0,
          2781.0,
          2779.0,
          2799.0,
          2810.0,
          2798.0,
          2782.0,
          2773.0,
          2783.0,
          2778.0,
          2779.0,
          2797.0,
          2794.0,
          2788.0,
          2788.0,
          2792.0,
          2787.0,
          2799.0,
          2798.0,
          2798.0,
          2798.0,
          2800.0,
          2794.0,
          2800.0,
          2802.0,
