{
  "aor": 0.0024802439024390246,
  "aqi": 0.006635926585365854,
  "bids_meta": {
    "AcquisitionMatrixPE": 96,
    "AcquisitionNumber": 1,
    "AcquisitionTime": "13:10:3.455000",
    "BandwidthPerPixelPhaseEncode": 52.083,
    "BaseResolution": 96,
    "BodyPartExamined": "HEAD",
    "ConversionSoftware": "dcm2niix",
    "ConversionSoftwareVersion": "v1.0.20180622 GCC6.3.0",
    "DerivedVendorReportedEchoSpacing": 0.000600004,
    "DeviceSerialNumber": "18926",
    "DwellTime": 2.6e-06,
    "EchoTime": 0.025,
    "EffectiveEchoSpacing": 0.000200001,
    "FlipAngle": 50,
    "ImageOrientationPatientDICOM": [
      0.999992,
      0.00067012,
      0.00404905,
      2.11009e-10,
      0.98658,
      -0.16328
    ],
    "ImageType": [
      "ORIGINAL",
      "PRIMARY",
      "M",
      "ND",
      "ECHO",
      "00",
      "MOSAIC"
    ],
    "InPlanePhaseEncodingDirectionDICOM": "ROW",
    "InstitutionName": "NIMH",
    "InstitutionalDepartmentName": "Department",
    "MRAcquisitionType": "2D",
    "MagneticFieldStrength": 6.98,
    "Manufacturer": "Siemens",
    "ManufacturersModelName": "Investigational_Device_7T",
    "Modality": "MR",
    "ParallelReductionFactorInPlane": 3,
    "PartialFourier": 1,
    "PatientPosition": "HFS",
    "PercentPhaseFOV": 100,
    "PhaseEncodingDirection": "i",
    "PhaseEncodingSteps": 94,
    "PhaseResolution": 1,
    "PixelBandwidth": 2003,
    "ProcedureStepDescription": "MRI_Procedure_Limited",
    "ProtocolName": "NIH_EPI_2.0iso_TR2_Run10",
    "PulseSequenceDetails": "%CustomerSeq%_inati_nih_epi",
    "ReceiveCoilName": "32Ch_Head_7T",
    "ReconMatrixPE": 96,
    "RepetitionTime": 2,
    "SAR": 0.0812638,
    "ScanningSequence": "EP",
    "SequenceName": "epfid2d1_96",
    "SequenceVariant": "SK",
    "SeriesDescription": "NIH_EPI_2.0iso_TR2_Run10",
    "SeriesNumber": 14,
    "ShimSetting": [
      -115,
      322,
      1244,
      1955,
      -97,
      654,
      347,
      -236
    ],
    "SliceThickness": 2,
    "SliceTiming": [
      1.0025,
      0,
      1.04,
      0.0375,
      1.0775,
      0.075,
      1.115,
      0.1125,
      1.1525,
      0.1475,
      1.19,
      0.185,
      1.2275,
      0.2225,
      1.265,
      0.26,
      1.3,
      0.2975,
      1.3375,
      0.335,
      1.375,
      0.3725,
      1.4125,
      0.4075,
      1.45,
      0.445,
      1.4875,
      0.4825,
      1.525,
      0.52,
      1.5625,
      0.5575,
      1.5975,
      0.595,
      1.635,
      0.6325,
      1.6725,
      0.67,
      1.71,
      0.705,
      1.7475,
      0.7425,
      1.785,
      0.78,
      1.8225,
      0.8175,
      1.8575,
      0.855,
      1.895,
      0.8925,
      1.9325,
      0.93,
      1.97,
      0.9675
    ],
    "SoftwareVersions": "syngo_MR_B17",
    "SpacingBetweenSlices": 2,
    "StationName": "FMRIFD7T",
    "TaskName": "FullFovNoAttentionTask",
    "TotalReadoutTime": 0.0190001,
    "TxRefAmp": 287,
    "dataset": "ds001555",
    "dcmmeta_affine": [
      [
        -1.9999831914901733,
        4.2201880878778297e-10,
        0.008208253420889378,
        95.76705169677734
      ],
      [
        -0.0013402394251897931,
        1.973159670829773,
        -0.32655632495880127,
        -62.44346618652344
      ],
      [
        0.008098097518086433,
        0.32655906677246094,
        1.9731431007385254,
        -46.29322052001953
      ],
      [
        0.0,
        0.0,
        0.0,
        1.0
      ]
    ],
    "dcmmeta_reorient_transform": [
      [
        0.0,
        -1.0,
        0.0,
        95.0
      ],
      [
        1.0,
        0.0,
        0.0,
        0.0
      ],
      [
        0.0,
        0.0,
        1.0,
        0.0
      ],
      [
        0.0,
        0.0,
        0.0,
        1.0
      ]
    ],
    "dcmmeta_shape": [
      96,
      96,
      54,
      164
    ],
    "dcmmeta_slice_dim": 2,
    "dcmmeta_version": 0.6,
    "global": {
      "const": {
        "AcquisitionMatrix": [
          0,
          96,
          96,
          0
        ],
        "Allergies": "No Known Allergies",
        "AngioFlag": "N",
        "BitsAllocated": 16,
        "BitsStored": 12,
        "BodyPartExamined": "HEAD",
        "Columns": 768,
        "EchoNumbers": 1,
        "EchoTime": 25.0,
        "EchoTrainLength": 1,
        "FlipAngle": 50.0,
        "HighBit": 11,
        "ImageOrientationPatient": [
          0.99999157803662,
          0.00067011969073,
          0.00404904870684,
          2.110094e-10,
          0.98657984636313,
          -0.1632795356133
        ],
        "ImagePositionPatient": [
          -767.761392775,
          -788.43868109794,
          91.732777677076
        ],
        "ImageType": [
          "ORIGINAL",
          "PRIMARY",
          "M",
          "ND",
          "ECHO_00",
          "MOSAIC"
        ],
        "ImagedNucleus": "1H",
        "ImagingFrequency": 297.205143,
        "InPlanePhaseEncodingDirection": "ROW",
        "LargestImagePixelValue": 4095,
        "MRAcquisitionType": "2D",
        "MagneticFieldStrength": 6.98,
        "Manufacturer": "SIEMENS",
        "ManufacturerModelName": "Investigational_Device_7T",
        "Modality": "MR",
        "NumberOfAverages": 1.0,
        "NumberOfPhaseEncodingSteps": 94,
        "PercentPhaseFieldOfView": 100.0,
        "PercentSampling": 100.0,
        "PerformedProcedureStepStartTime": "115404.078000",
        "PhotometricInterpretation": "MONOCHROME2",
        "PixelBandwidth": 2003.0,
        "PixelRepresentation": 0,
        "PixelSpacing": [
          2.0,
          2.0
        ],
        "PositionReferenceIndicator": "",
        "ProcedureCodeSequence": [
          {
            "CodeMeaning": "MRI Procedure Limited",
            "CodeValue": "MI01491",
            "CodingSchemeDesignator": "USA Standard",
            "ContextIdentifier": "4000109576"
          }
        ],
        "ProtocolName": "NIH_EPI_2.0iso_TR2_Run10",
        "ReferencedStudySequence": [
          {
            "ReferencedSOPClassUID": "1.2.840.10008.3.1.2.3.1",
            "ReferencedSOPInstanceUID": "1.2.840.113564.9.1.2723958737.61.2.5000075338"
          }
        ],
        "RepetitionTime": 2000.0,
        "RequestedProcedureCodeSequence": [
          {
            "CodeMeaning": "MRI Procedure Limited",
            "CodeValue": "MI01491",
            "CodingSchemeDesignator": "USA Standard",
            "ContextIdentifier": "4000109576"
          }
        ],
        "RequestingService": "MHED",
        "Rows": 768,
        "SAR": 0.0812637748338,
        "SamplesPerPixel": 1,
        "ScanningSequence": "EP",
        "SequenceName": "epfid2d1_96",
        "SequenceVariant": "SK",
        "SeriesDescription": "NIH_EPI_2.0iso_TR2_Run10",
        "SeriesNumber": 14,
        "SliceLocation": -35.082879977569,
        "SliceThickness": 2.0,
        "SmallestImagePixelValue": 0,
        "SoftwareVersions": "syngo MR B17",
        "SpacingBetweenSlices": 2.0000000184226,
        "TransmitCoilName": "32Ch_Head_7T",
        "VariableFlipAngleFlag": "N",
        "WindowCenterWidthExplanation": "Algo1",
        "dBdt": 0.0
      },
      "slices": {}
    },
    "modality": "bold",
    "run_id": 11,
    "session_id": "05",
    "subject_id": "002",
    "task_id": "FullFovNoAttentionTask",
    "time": {
      "samples": {
        "AcquisitionNumber": [
          1,
          2,
          3,
          4,
          5,
          6,
          7,
          8,
          9,
          10,
          11,
          12,
          13,
          14,
          15,
          16,
          17,
          18,
          19,
          20,
          21,
          22,
          23,
          24,
          25,
          26,
          27,
          28,
          29,
          30,
          31,
          32,
          33,
          34,
          35,
          36,
          37,
          38,
          39,
          40,
          41,
          42,
          43,
          44,
          45,
          46,
          47,
          48,
          49,
          50,
          51,
          52,
          53,
          54,
          55,
          56,
          57,
          58,
          59,
          60,
          61,
          62,
          63,
          64,
          65,
          66,
          67,
          68,
          69,
          70,
          71,
          72,
          73,
          74,
          75,
          76,
          77,
          78,
          79,
          80,
          81,
          82,
          83,
          84,
          85,
          86,
          87,
          88,
          89,
          90,
          91,
          92,
          93,
          94,
          95,
          96,
          97,
          98,
          99,
          100,
          101,
          102,
          103,
          104,
          105,
          106,
          107,
          108,
          109,
          110,
          111,
          112,
          113,
          114,
          115,
          116,
          117,
          118,
          119,
          120,
          121,
          122,
          123,
          124,
          125,
          126,
          127,
          128,
          129,
          130,
          131,
          132,
          133,
          134,
          135,
          136,
          137,
          138,
          139,
          140,
          141,
          142,
          143,
          144,
          145,
          146,
          147,
          148,
          149,
          150,
          151,
          152,
          153,
          154,
          155,
          156,
          157,
          158,
          159,
          160,
          161,
          162,
          163,
          164
        ],
        "AcquisitionTime": [
          "131003.455000",
          "131007.472500",
          "131009.480000",
          "131011.487500",
          "131013.497500",
          "131015.505000",
          "131017.512500",
          "131019.520000",
          "131021.527500",
          "131023.537500",
          "131025.545000",
          "131027.552500",
          "131029.560000",
          "131031.567500",
          "131033.577500",
          "131035.585000",
          "131037.592500",
          "131039.600000",
          "131041.607500",
          "131043.617500",
          "131045.625000",
          "131047.632500",
          "131049.640000",
          "131051.650000",
          "131053.657500",
          "131055.665000",
          "131057.672500",
          "131059.680000",
          "131101.690000",
          "131103.697500",
          "131105.705000",
          "131107.712500",
          "131109.720000",
          "131111.730000",
          "131113.737500",
          "131115.745000",
          "131117.752500",
          "131119.762500",
          "131121.770000",
          "131123.777500",
          "131125.785000",
          "131127.792500",
          "131129.802500",
          "131131.810000",
          "131133.817500",
          "131135.825000",
          "131137.832500",
          "131139.842500",
          "131141.850000",
          "131143.857500",
          "131145.865000",
          "131147.875000",
          "131149.882500",
          "131151.890000",
          "131153.897500",
          "131155.905000",
          "131157.915000",
          "131159.922500",
          "131201.930000",
          "131203.937500",
          "131205.945000",
          "131207.955000",
          "131209.962500",
          "131211.970000",
          "131213.977500",
          "131215.985000",
          "131217.995000",
          "131220.002500",
          "131222.010000",
          "131224.017500",
          "131226.027500",
          "131228.035000",
          "131230.042500",
          "131232.050000",
          "131234.057500",
          "131236.067500",
          "131238.075000",
          "131240.082500",
          "131242.090000",
          "131244.097500",
          "131246.107500",
          "131248.115000",
          "131250.122500",
          "131252.130000",
          "131254.140000",
          "131256.147500",
          "131258.155000",
          "131300.162500",
          "131302.170000",
          "131304.180000",
          "131306.187500",
          "131308.195000",
          "131310.202500",
          "131312.210000",
          "131314.220000",
          "131316.227500",
          "131318.235000",
          "131320.242500",
          "131322.252500",
          "131324.260000",
          "131326.267500",
          "131328.275000",
          "131330.282500",
          "131332.292500",
          "131334.300000",
          "131336.307500",
          "131338.315000",
          "131340.322500",
          "131342.332500",
          "131344.340000",
          "131346.347500",
          "131348.355000",
          "131350.362500",
          "131352.372500",
          "131354.380000",
          "131356.387500",
          "131358.395000",
          "131400.405000",
          "131402.412500",
          "131404.420000",
          "131406.427500",
          "131408.435000",
          "131410.445000",
          "131412.452500",
          "131414.460000",
          "131416.467500",
          "131418.475000",
          "131420.485000",
          "131422.492500",
          "131424.500000",
          "131426.507500",
          "131428.517500",
          "131430.525000",
          "131432.532500",
          "131434.540000",
          "131436.547500",
          "131438.557500",
          "131440.565000",
          "131442.572500",
          "131444.580000",
          "131446.587500",
          "131448.597500",
          "131450.605000",
          "131452.612500",
          "131454.620000",
          "131456.630000",
          "131458.637500",
          "131500.645000",
          "131502.652500",
          "131504.660000",
          "131506.670000",
          "131508.677500",
          "131510.685000",
          "131512.692500",
          "131514.700000",
          "131516.710000",
          "131518.717500",
          "131520.725000",
          "131522.732500",
          "131524.740000",
          "131526.750000",
          "131528.757500",
          "131530.765000",
          "131532.772500"
        ],
        "ContentTime": [
          "131050.062000",
          "131050.062000",
          "131050.062000",
          "131050.078000",
          "131050.078000",
          "131050.078000",
          "131050.078000",
          "131050.078000",
          "131050.093000",
          "131050.093000",
          "131050.093000",
          "131050.093000",
          "131050.093000",
          "131050.093000",
          "131050.093000",
          "131050.109000",
          "131050.109000",
          "131050.109000",
          "131050.109000",
          "131050.109000",
          "131050.109000",
          "131050.125000",
          "131130.046000",
          "131130.046000",
          "131130.062000",
          "131130.062000",
          "131130.062000",
          "131130.062000",
          "131130.062000",
          "131130.078000",
          "131130.078000",
          "131130.078000",
          "131130.078000",
          "131130.078000",
          "131130.093000",
          "131130.093000",
          "131130.093000",
          "131130.093000",
          "131130.093000",
          "131130.093000",
          "131130.093000",
          "131130.109000",
          "131210.046000",
          "131210.046000",
          "131210.062000",
          "131210.062000",
          "131210.062000",
          "131210.062000",
          "131210.062000",
          "131210.062000",
          "131210.078000",
          "131210.078000",
          "131210.078000",
          "131210.078000",
          "131210.078000",
          "131210.078000",
          "131210.093000",
          "131210.093000",
          "131210.093000",
          "131210.093000",
          "131210.093000",
          "131210.093000",
          "131250.046000",
          "131250.046000",
          "131250.062000",
          "131250.062000",
          "131250.062000",
          "131250.062000",
          "131250.062000",
          "131250.062000",
          "131250.078000",
          "131250.078000",
          "131250.078000",
          "131250.078000",
          "131250.078000",
          "131250.078000",
          "131250.078000",
          "131250.093000",
          "131250.093000",
          "131250.093000",
          "131250.093000",
          "131250.109000",
          "131330.046000",
          "131330.046000",
          "131330.062000",
          "131330.062000",
          "131330.062000",
          "131330.062000",
          "131330.062000",
          "131330.062000",
          "131330.078000",
          "131330.078000",
          "131330.078000",
          "131330.078000",
          "131330.078000",
          "131330.078000",
          "131330.093000",
          "131330.109000",
          "131330.109000",
          "131330.109000",
          "131330.109000",
          "131330.125000",
          "131410.046000",
          "131410.046000",
          "131410.062000",
          "131410.062000",
          "131410.062000",
          "131410.062000",
          "131410.062000",
          "131410.062000",
          "131410.078000",
          "131410.078000",
          "131410.078000",
          "131410.078000",
          "131410.078000",
          "131410.078000",
          "131410.093000",
          "131410.093000",
          "131410.093000",
          "131410.093000",
          "131410.093000",
          "131410.093000",
          "131450.046000",
          "131450.046000",
          "131450.062000",
          "131450.062000",
          "131450.062000",
          "131450.062000",
          "131450.062000",
          "131450.062000",
          "131450.078000",
          "131450.078000",
          "131450.078000",
          "131450.078000",
          "131450.078000",
          "131450.078000",
          "131450.078000",
          "131450.093000",
          "131450.093000",
          "131450.093000",
          "131450.093000",
          "131450.093000",
          "131530.046000",
          "131530.046000",
          "131530.062000",
          "131530.062000",
          "131530.062000",
          "131530.062000",
          "131530.062000",
          "131530.062000",
          "131530.078000",
          "131530.078000",
          "131530.078000",
          "131530.078000",
          "131530.078000",
          "131530.078000",
          "131530.093000",
          "131530.093000",
          "131530.093000",
          "131530.093000",
          "131530.093000",
          "131530.093000",
          "131532.656000",
          "131532.656000"
        ],
        "InstanceCreationTime": [
          "131050.062000",
          "131050.062000",
          "131050.062000",
          "131050.078000",
          "131050.078000",
          "131050.078000",
          "131050.078000",
          "131050.078000",
          "131050.093000",
          "131050.093000",
          "131050.093000",
          "131050.093000",
          "131050.093000",
          "131050.093000",
          "131050.093000",
          "131050.109000",
          "131050.109000",
          "131050.109000",
          "131050.109000",
          "131050.109000",
          "131050.109000",
          "131050.125000",
          "131130.046000",
          "131130.046000",
          "131130.062000",
          "131130.062000",
          "131130.062000",
          "131130.062000",
          "131130.062000",
          "131130.078000",
          "131130.078000",
          "131130.078000",
          "131130.078000",
          "131130.078000",
          "131130.093000",
          "131130.093000",
          "131130.093000",
          "131130.093000",
          "131130.093000",
          "131130.093000",
          "131130.093000",
          "131130.109000",
          "131210.046000",
          "131210.046000",
          "131210.062000",
          "131210.062000",
          "131210.062000",
          "131210.062000",
          "131210.062000",
          "131210.062000",
          "131210.078000",
          "131210.078000",
          "131210.078000",
          "131210.078000",
          "131210.078000",
          "131210.078000",
          "131210.093000",
          "131210.093000",
          "131210.093000",
          "131210.093000",
          "131210.093000",
          "131210.093000",
          "131250.046000",
          "131250.046000",
          "131250.062000",
          "131250.062000",
          "131250.062000",
          "131250.062000",
          "131250.062000",
          "131250.062000",
          "131250.078000",
          "131250.078000",
          "131250.078000",
          "131250.078000",
          "131250.078000",
          "131250.078000",
          "131250.078000",
          "131250.093000",
          "131250.093000",
          "131250.093000",
          "131250.093000",
          "131250.109000",
          "131330.046000",
          "131330.046000",
          "131330.062000",
          "131330.062000",
          "131330.062000",
          "131330.062000",
          "131330.062000",
          "131330.062000",
          "131330.078000",
          "131330.078000",
          "131330.078000",
          "131330.078000",
          "131330.078000",
          "131330.078000",
          "131330.093000",
          "131330.109000",
          "131330.109000",
          "131330.109000",
          "131330.109000",
          "131330.125000",
          "131410.046000",
          "131410.046000",
          "131410.062000",
          "131410.062000",
          "131410.062000",
          "131410.062000",
          "131410.062000",
          "131410.062000",
          "131410.078000",
          "131410.078000",
          "131410.078000",
          "131410.078000",
          "131410.078000",
          "131410.078000",
          "131410.093000",
          "131410.093000",
          "131410.093000",
          "131410.093000",
          "131410.093000",
          "131410.093000",
          "131450.046000",
          "131450.046000",
          "131450.062000",
          "131450.062000",
          "131450.062000",
          "131450.062000",
          "131450.062000",
          "131450.062000",
          "131450.078000",
          "131450.078000",
          "131450.078000",
          "131450.078000",
          "131450.078000",
          "131450.078000",
          "131450.078000",
          "131450.093000",
          "131450.093000",
          "131450.093000",
          "131450.093000",
          "131450.093000",
          "131530.046000",
          "131530.046000",
          "131530.062000",
          "131530.062000",
          "131530.062000",
          "131530.062000",
          "131530.062000",
          "131530.062000",
          "131530.078000",
          "131530.078000",
          "131530.078000",
          "131530.078000",
          "131530.078000",
          "131530.078000",
          "131530.093000",
          "131530.093000",
          "131530.093000",
          "131530.093000",
          "131530.093000",
          "131530.093000",
          "131532.656000",
          "131532.656000"
        ],
        "InstanceNumber": [
          1,
          2,
          3,
          4,
          5,
          6,
          7,
          8,
          9,
          10,
          11,
          12,
          13,
          14,
          15,
          16,
          17,
          18,
          19,
          20,
          21,
          22,
          23,
          24,
          25,
          26,
          27,
          28,
          29,
          30,
          31,
          32,
          33,
          34,
          35,
          36,
          37,
          38,
          39,
          40,
          41,
          42,
          43,
          44,
          45,
          46,
          47,
          48,
          49,
          50,
          51,
          52,
          53,
          54,
          55,
          56,
          57,
          58,
          59,
          60,
          61,
          62,
          63,
          64,
          65,
          66,
          67,
          68,
          69,
          70,
          71,
          72,
          73,
          74,
          75,
          76,
          77,
          78,
          79,
          80,
          81,
          82,
          83,
          84,
          85,
          86,
          87,
          88,
          89,
          90,
          91,
          92,
          93,
          94,
          95,
          96,
          97,
          98,
          99,
          100,
          101,
          102,
          103,
          104,
          105,
          106,
          107,
          108,
          109,
          110,
          111,
          112,
          113,
          114,
          115,
          116,
          117,
          118,
          119,
          120,
          121,
          122,
          123,
          124,
          125,
          126,
          127,
          128,
          129,
          130,
          131,
          132,
          133,
          134,
          135,
          136,
          137,
          138,
          139,
          140,
          141,
          142,
          143,
          144,
          145,
          146,
          147,
          148,
          149,
          150,
          151,
          152,
          153,
          154,
          155,
          156,
          157,
          158,
          159,
          160,
          161,
          162,
          163,
          164
        ],
        "WindowCenter": [
          1046.0,
          1046.0,
          1045.0,
          1046.0,
          1046.0,
          1045.0,
          1045.0,
          1046.0,
          1046.0,
          1048.0,
          1048.0,
          1044.0,
          1044.0,
          1044.0,
          1045.0,
          1047.0,
          1044.0,
          1042.0,
          1044.0,
          1045.0,
          1043.0,
          1044.0,
          1043.0,
          1043.0,
          1045.0,
          1044.0,
          1044.0,
          1046.0,
          1045.0,
          1044.0,
          1045.0,
          1045.0,
          1045.0,
          1046.0,
          1045.0,
          1044.0,
          1045.0,
          1045.0,
          1046.0,
          1045.0,
          1044.0,
          1044.0,
          1044.0,
          1045.0,
          1046.0,
          1046.0,
          1046.0,
          1047.0,
          1046.0,
          1048.0,
          1045.0,
          1044.0,
          1044.0,
          1046.0,
          1045.0,
          1044.0,
          1045.0,
          1045.0,
          1048.0,
          1047.0,
          1045.0,
          1048.0,
          1045.0,
          1045.0,
          1046.0,
          1046.0,
          1046.0,
          1046.0,
          1045.0,
          1045.0,
          1046.0,
          1047.0,
          1045.0,
          1044.0,
          1047.0,
          1045.0,
          1046.0,
          1045.0,
          1045.0,
          1047.0,
          1045.0,
          1043.0,
          1044.0,
          1044.0,
          1045.0,
          1046.0,
          1047.0,
          1048.0,
          1047.0,
          1045.0,
          1046.0,
          1044.0,
          1046.0,
          1047.0,
          1045.0,
          1045.0,
          1046.0,
          1047.0,
          1047.0,
          1046.0,
          1045.0,
          1046.0,
          1047.0,
          1045.0,
          1046.0,
          1045.0,
          1047.0,
          1046.0,
          1044.0,
          1044.0,
          1045.0,
          1045.0,
          1046.0,
          1044.0,
          1044.0,
          1043.0,
          1045.0,
          1044.0,
          1044.0,
          1045.0,
          1044.0,
          1045.0,
          1045.0,
          1047.0,
          1047.0,
          1046.0,
          1047.0,
          1047.0,
          1047.0,
          1046.0,
          1046.0,
          1048.0,
          1047.0,
          1048.0,
          1047.0,
          1044.0,
          1046.0,
          1044.0,
          1048.0,
          1049.0,
          1045.0,
          1043.0,
          1042.0,
          1044.0,
          1046.0,
          1046.0,
          1046.0,
          1047.0,
          1045.0,
          1046.0,
          1047.0,
          1045.0,
          1046.0,
          1045.0,
          1044.0,
          1047.0,
          1047.0,
          1046.0,
          1044.0,
          1044.0,
          1045.0,
          1048.0,
          1047.0,
          1046.0
        ],
        "WindowWidth": [
          2791.0,
          2790.0,
          2786.0,
          2792.0,
          2789.0,
          2782.0,
          2785.0,
          2791.0,
          2797.0,
          2801.0,
          2792.0,
          2781.0,
          2785.0,
          2777.0,
          2789.0,
          2795.0,
          2782.0,
          2778.0,
          2787.0,
          2782.0,
          2777.0,
          2779.0,
          2782.0,
          2780.0,
          2789.0,
          2783.0,
          2780.0,
          2787.0,
          2784.0,
          2780.0,
          2788.0,
          2787.0,
          2786.0,
          2793.0,
          2781.0,
          2780.0,
          2787.0,
          2789.0,
          2789.0,
          2788.0,
          2784.0,
          2783.0,
          2783.0,
          2791.0,
          2789.0,
          2784.0,
          2788.0,
          2791.0,
          2792.0,
          2800.0,
          2789.0,
          2782.0,
          2792.0,
          2793.0,
          2784.0,
          2782.0,
          2784.0,
          2783.0,
          2793.0,
          2787.0,
          2784.0,
          2794.0,
          2782.0,
          2791.0,
          2789.0,
          2785.0,
          2794.0,
          2790.0,
          2788.0,
          2788.0,
          2788.0,
          2794.0,
          2786.0,
          2786.0,
          2798.0,
          2785.0,
          2783.0,
          2789.0,
          2783.0,
          2792.0,
          2785.0,
          2780.0,
