{
  "aor": 0.0009244512195121953,
  "aqi": 0.004471225,
  "bids_meta": {
    "AcquisitionMatrixPE": 96,
    "AcquisitionNumber": 1,
    "AcquisitionTime": "12:57:49.315000",
    "BandwidthPerPixelPhaseEncode": 52.083,
    "BaseResolution": 96,
    "BodyPartExamined": "HEAD",
    "ConversionSoftware": "dcm2niix",
    "ConversionSoftwareVersion": "v1.0.20180622 GCC6.3.0",
    "DerivedVendorReportedEchoSpacing": 0.000600004,
    "DeviceSerialNumber": "18926",
    "DwellTime": 2.6e-06,
    "EchoTime": 0.025,
    "EffectiveEchoSpacing": 0.000200001,
    "FlipAngle": 50,
    "ImageOrientationPatientDICOM": [
      0.999992,
      0.00067012,
      0.00404905,
      2.11009e-10,
      0.98658,
      -0.16328
    ],
    "ImageType": [
      "ORIGINAL",
      "PRIMARY",
      "M",
      "ND",
      "ECHO",
      "00",
      "MOSAIC"
    ],
    "InPlanePhaseEncodingDirectionDICOM": "ROW",
    "InstitutionName": "NIMH",
    "InstitutionalDepartmentName": "Department",
    "MRAcquisitionType": "2D",
    "MagneticFieldStrength": 6.98,
    "Manufacturer": "Siemens",
    "ManufacturersModelName": "Investigational_Device_7T",
    "Modality": "MR",
    "ParallelReductionFactorInPlane": 3,
    "PartialFourier": 1,
    "PatientPosition": "HFS",
    "PercentPhaseFOV": 100,
    "PhaseEncodingDirection": "i",
    "PhaseEncodingSteps": 94,
    "PhaseResolution": 1,
    "PixelBandwidth": 2003,
    "ProcedureStepDescription": "MRI_Procedure_Limited",
    "ProtocolName": "NIH_EPI_2.0iso_TR2_Run08",
    "PulseSequenceDetails": "%CustomerSeq%_inati_nih_epi",
    "ReceiveCoilName": "32Ch_Head_7T",
    "ReconMatrixPE": 96,
    "RepetitionTime": 2,
    "SAR": 0.0812638,
    "ScanningSequence": "EP",
    "SequenceName": "epfid2d1_96",
    "SequenceVariant": "SK",
    "SeriesDescription": "NIH_EPI_2.0iso_TR2_Run08",
    "SeriesNumber": 12,
    "ShimSetting": [
      -115,
      322,
      1244,
      1955,
      -97,
      654,
      347,
      -236
    ],
    "SliceThickness": 2,
    "SliceTiming": [
      1.005,
      0,
      1.04,
      0.0375,
      1.0775,
      0.075,
      1.115,
      0.1125,
      1.1525,
      0.15,
      1.19,
      0.185,
      1.2275,
      0.2225,
      1.265,
      0.26,
      1.3025,
      0.2975,
      1.3375,
      0.335,
      1.375,
      0.3725,
      1.4125,
      0.41,
      1.45,
      0.445,
      1.4875,
      0.4825,
      1.525,
      0.52,
      1.5625,
      0.5575,
      1.6,
      0.595,
      1.635,
      0.6325,
      1.6725,
      0.67,
      1.71,
      0.7075,
      1.7475,
      0.7425,
      1.785,
      0.78,
      1.8225,
      0.8175,
      1.86,
      0.855,
      1.895,
      0.8925,
      1.9325,
      0.93,
      1.97,
      0.9675
    ],
    "SoftwareVersions": "syngo_MR_B17",
    "SpacingBetweenSlices": 2,
    "StationName": "FMRIFD7T",
    "TaskName": "FullFovNoAttentionTask",
    "TotalReadoutTime": 0.0190001,
    "TxRefAmp": 287,
    "dataset": "ds001555",
    "dcmmeta_affine": [
      [
        -1.9999831914901733,
        4.2201880878778297e-10,
        0.008208253420889378,
        95.76705169677734
      ],
      [
        -0.0013402394251897931,
        1.973159670829773,
        -0.32655632495880127,
        -62.44346618652344
      ],
      [
        0.008098097518086433,
        0.32655906677246094,
        1.9731431007385254,
        -46.29322052001953
      ],
      [
        0.0,
        0.0,
        0.0,
        1.0
      ]
    ],
    "dcmmeta_reorient_transform": [
      [
        0.0,
        -1.0,
        0.0,
        95.0
      ],
      [
        1.0,
        0.0,
        0.0,
        0.0
      ],
      [
        0.0,
        0.0,
        1.0,
        0.0
      ],
      [
        0.0,
        0.0,
        0.0,
        1.0
      ]
    ],
    "dcmmeta_shape": [
      96,
      96,
      54,
      164
    ],
    "dcmmeta_slice_dim": 2,
    "dcmmeta_version": 0.6,
    "global": {
      "const": {
        "AcquisitionMatrix": [
          0,
          96,
          96,
          0
        ],
        "Allergies": "No Known Allergies",
        "AngioFlag": "N",
        "BitsAllocated": 16,
        "BitsStored": 12,
        "BodyPartExamined": "HEAD",
        "Columns": 768,
        "EchoNumbers": 1,
        "EchoTime": 25.0,
        "EchoTrainLength": 1,
        "FlipAngle": 50.0,
        "HighBit": 11,
        "ImageOrientationPatient": [
          0.99999157803662,
          0.00067011969073,
          0.00404904870684,
          2.110094e-10,
          0.98657984636313,
          -0.1632795356133
        ],
        "ImagePositionPatient": [
          -767.761392775,
          -788.43868109794,
          91.732777677076
        ],
        "ImageType": [
          "ORIGINAL",
          "PRIMARY",
          "M",
          "ND",
          "ECHO_00",
          "MOSAIC"
        ],
        "ImagedNucleus": "1H",
        "ImagingFrequency": 297.205108,
        "InPlanePhaseEncodingDirection": "ROW",
        "LargestImagePixelValue": 4095,
        "MRAcquisitionType": "2D",
        "MagneticFieldStrength": 6.98,
        "Manufacturer": "SIEMENS",
        "ManufacturerModelName": "Investigational_Device_7T",
        "Modality": "MR",
        "NumberOfAverages": 1.0,
        "NumberOfPhaseEncodingSteps": 94,
        "PercentPhaseFieldOfView": 100.0,
        "PercentSampling": 100.0,
        "PerformedProcedureStepStartTime": "115404.078000",
        "PhotometricInterpretation": "MONOCHROME2",
        "PixelBandwidth": 2003.0,
        "PixelRepresentation": 0,
        "PixelSpacing": [
          2.0,
          2.0
        ],
        "PositionReferenceIndicator": "",
        "ProcedureCodeSequence": [
          {
            "CodeMeaning": "MRI Procedure Limited",
            "CodeValue": "MI01491",
            "CodingSchemeDesignator": "USA Standard",
            "ContextIdentifier": "4000109576"
          }
        ],
        "ProtocolName": "NIH_EPI_2.0iso_TR2_Run08",
        "ReferencedStudySequence": [
          {
            "ReferencedSOPClassUID": "1.2.840.10008.3.1.2.3.1",
            "ReferencedSOPInstanceUID": "1.2.840.113564.9.1.2723958737.61.2.5000075338"
          }
        ],
        "RepetitionTime": 2000.0,
        "RequestedProcedureCodeSequence": [
          {
            "CodeMeaning": "MRI Procedure Limited",
            "CodeValue": "MI01491",
            "CodingSchemeDesignator": "USA Standard",
            "ContextIdentifier": "4000109576"
          }
        ],
        "RequestingService": "MHED",
        "Rows": 768,
        "SAR": 0.0812637748338,
        "SamplesPerPixel": 1,
        "ScanningSequence": "EP",
        "SequenceName": "epfid2d1_96",
        "SequenceVariant": "SK",
        "SeriesDescription": "NIH_EPI_2.0iso_TR2_Run08",
        "SeriesNumber": 12,
        "SliceLocation": -35.082879977569,
        "SliceThickness": 2.0,
        "SmallestImagePixelValue": 0,
        "SoftwareVersions": "syngo MR B17",
        "SpacingBetweenSlices": 2.0000000184226,
        "TransmitCoilName": "32Ch_Head_7T",
        "VariableFlipAngleFlag": "N",
        "WindowCenterWidthExplanation": "Algo1",
        "dBdt": 0.0
      },
      "slices": {}
    },
    "modality": "bold",
    "run_id": 9,
    "session_id": "05",
    "subject_id": "002",
    "task_id": "FullFovNoAttentionTask",
    "time": {
      "samples": {
        "AcquisitionNumber": [
          1,
          2,
          3,
          4,
          5,
          6,
          7,
          8,
          9,
          10,
          11,
          12,
          13,
          14,
          15,
          16,
          17,
          18,
          19,
          20,
          21,
          22,
          23,
          24,
          25,
          26,
          27,
          28,
          29,
          30,
          31,
          32,
          33,
          34,
          35,
          36,
          37,
          38,
          39,
          40,
          41,
          42,
          43,
          44,
          45,
          46,
          47,
          48,
          49,
          50,
          51,
          52,
          53,
          54,
          55,
          56,
          57,
          58,
          59,
          60,
          61,
          62,
          63,
          64,
          65,
          66,
          67,
          68,
          69,
          70,
          71,
          72,
          73,
          74,
          75,
          76,
          77,
          78,
          79,
          80,
          81,
          82,
          83,
          84,
          85,
          86,
          87,
          88,
          89,
          90,
          91,
          92,
          93,
          94,
          95,
          96,
          97,
          98,
          99,
          100,
          101,
          102,
          103,
          104,
          105,
          106,
          107,
          108,
          109,
          110,
          111,
          112,
          113,
          114,
          115,
          116,
          117,
          118,
          119,
          120,
          121,
          122,
          123,
          124,
          125,
          126,
          127,
          128,
          129,
          130,
          131,
          132,
          133,
          134,
          135,
          136,
          137,
          138,
          139,
          140,
          141,
          142,
          143,
          144,
          145,
          146,
          147,
          148,
          149,
          150,
          151,
          152,
          153,
          154,
          155,
          156,
          157,
          158,
          159,
          160,
          161,
          162,
          163,
          164
        ],
        "AcquisitionTime": [
          "125749.315000",
          "125753.330000",
          "125755.337500",
          "125757.345000",
          "125759.355000",
          "125801.362500",
          "125803.370000",
          "125805.377500",
          "125807.385000",
          "125809.395000",
          "125811.402500",
          "125813.410000",
          "125815.417500",
          "125817.427500",
          "125819.435000",
          "125821.442500",
          "125823.450000",
          "125825.457500",
          "125827.467500",
          "125829.475000",
          "125831.482500",
          "125833.490000",
          "125835.497500",
          "125837.507500",
          "125839.515000",
          "125841.522500",
          "125843.530000",
          "125845.540000",
          "125847.547500",
          "125849.555000",
          "125851.562500",
          "125853.570000",
          "125855.580000",
          "125857.587500",
          "125859.595000",
          "125901.602500",
          "125903.610000",
          "125905.620000",
          "125907.627500",
          "125909.635000",
          "125911.642500",
          "125913.650000",
          "125915.660000",
          "125917.667500",
          "125919.675000",
          "125921.682500",
          "125923.692500",
          "125925.700000",
          "125927.707500",
          "125929.715000",
          "125931.722500",
          "125933.732500",
          "125935.740000",
          "125937.747500",
          "125939.755000",
          "125941.762500",
          "125943.772500",
          "125945.780000",
          "125947.787500",
          "125949.795000",
          "125951.805000",
          "125953.812500",
          "125955.820000",
          "125957.827500",
          "125959.835000",
          "130001.845000",
          "130003.852500",
          "130005.860000",
          "130007.867500",
          "130009.875000",
          "130011.885000",
          "130013.892500",
          "130015.900000",
          "130017.907500",
          "130019.917500",
          "130021.925000",
          "130023.932500",
          "130025.940000",
          "130027.947500",
          "130029.957500",
          "130031.965000",
          "130033.972500",
          "130035.980000",
          "130037.987500",
          "130039.997500",
          "130042.005000",
          "130044.012500",
          "130046.020000",
          "130048.030000",
          "130050.037500",
          "130052.045000",
          "130054.052500",
          "130056.060000",
          "130058.070000",
          "130100.077500",
          "130102.085000",
          "130104.092500",
          "130106.100000",
          "130108.110000",
          "130110.117500",
          "130112.125000",
          "130114.132500",
          "130116.140000",
          "130118.150000",
          "130120.157500",
          "130122.165000",
          "130124.172500",
          "130126.182500",
          "130128.190000",
          "130130.197500",
          "130132.205000",
          "130134.212500",
          "130136.222500",
          "130138.230000",
          "130140.237500",
          "130142.245000",
          "130144.252500",
          "130146.262500",
          "130148.270000",
          "130150.277500",
          "130152.285000",
          "130154.295000",
          "130156.302500",
          "130158.310000",
          "130200.317500",
          "130202.325000",
          "130204.335000",
          "130206.342500",
          "130208.350000",
          "130210.357500",
          "130212.365000",
          "130214.375000",
          "130216.382500",
          "130218.390000",
          "130220.397500",
          "130222.407500",
          "130224.415000",
          "130226.422500",
          "130228.430000",
          "130230.437500",
          "130232.447500",
          "130234.455000",
          "130236.462500",
          "130238.470000",
          "130240.477500",
          "130242.487500",
          "130244.495000",
          "130246.502500",
          "130248.510000",
          "130250.517500",
          "130252.527500",
          "130254.535000",
          "130256.542500",
          "130258.550000",
          "130300.560000",
          "130302.567500",
          "130304.575000",
          "130306.582500",
          "130308.590000",
          "130310.600000",
          "130312.607500",
          "130314.615000",
          "130316.622500",
          "130318.630000"
        ],
        "ContentTime": [
          "125835.000000",
          "125835.000000",
          "125835.015000",
          "125835.015000",
          "125835.015000",
          "125835.015000",
          "125835.015000",
          "125835.015000",
          "125835.031000",
          "125835.031000",
          "125835.031000",
          "125835.031000",
          "125835.031000",
          "125835.031000",
          "125835.031000",
          "125835.046000",
          "125835.046000",
          "125835.046000",
          "125835.046000",
          "125835.046000",
          "125835.046000",
          "125835.062000",
          "125914.984000",
          "125914.984000",
          "125914.984000",
          "125915.000000",
          "125915.000000",
          "125915.000000",
          "125915.000000",
          "125915.000000",
          "125915.000000",
          "125915.015000",
          "125915.015000",
          "125915.015000",
          "125915.015000",
          "125915.015000",
          "125915.031000",
          "125915.031000",
          "125915.031000",
          "125915.031000",
          "125915.031000",
          "125915.031000",
          "125954.984000",
          "125954.984000",
          "125955.000000",
          "125955.000000",
          "125955.000000",
          "125955.000000",
          "125955.000000",
          "125955.000000",
          "125955.015000",
          "125955.015000",
          "125955.015000",
          "125955.015000",
          "125955.015000",
          "125955.015000",
          "125955.015000",
          "125955.031000",
          "125955.031000",
          "125955.031000",
          "125955.031000",
          "125955.031000",
          "130034.984000",
          "130034.984000",
          "130035.000000",
          "130035.000000",
          "130035.000000",
          "130035.000000",
          "130035.015000",
          "130035.015000",
          "130035.015000",
          "130035.015000",
          "130035.031000",
          "130035.031000",
          "130035.031000",
          "130035.031000",
          "130035.031000",
          "130035.031000",
          "130035.046000",
          "130035.046000",
          "130035.046000",
          "130035.046000",
          "130114.984000",
          "130114.984000",
          "130115.000000",
          "130115.000000",
          "130115.000000",
          "130115.000000",
          "130115.000000",
          "130115.000000",
          "130115.015000",
          "130115.015000",
          "130115.015000",
          "130115.015000",
          "130115.015000",
          "130115.031000",
          "130115.031000",
          "130115.031000",
          "130115.031000",
          "130115.031000",
          "130115.046000",
          "130115.046000",
          "130154.984000",
          "130154.984000",
          "130155.000000",
          "130155.000000",
          "130155.000000",
          "130155.000000",
          "130155.000000",
          "130155.000000",
          "130155.015000",
          "130155.015000",
          "130155.015000",
          "130155.015000",
          "130155.015000",
          "130155.015000",
          "130155.031000",
          "130155.031000",
          "130155.031000",
          "130155.031000",
          "130155.031000",
          "130155.031000",
          "130234.984000",
          "130234.984000",
          "130235.000000",
          "130235.000000",
          "130235.000000",
          "130235.015000",
          "130235.015000",
          "130235.015000",
          "130235.015000",
          "130235.015000",
          "130235.015000",
          "130235.015000",
          "130235.031000",
          "130235.031000",
          "130235.031000",
          "130235.031000",
          "130235.031000",
          "130235.031000",
          "130235.046000",
          "130235.046000",
          "130314.984000",
          "130314.984000",
          "130315.000000",
          "130315.000000",
          "130315.000000",
          "130315.000000",
          "130315.000000",
          "130315.000000",
          "130315.015000",
          "130315.015000",
          "130315.015000",
          "130315.015000",
          "130315.015000",
          "130315.015000",
          "130315.015000",
          "130315.031000",
          "130315.031000",
          "130315.031000",
          "130315.031000",
          "130315.031000",
          "130318.531000",
          "130318.531000"
        ],
        "InstanceCreationTime": [
          "125835.000000",
          "125835.000000",
          "125835.015000",
          "125835.015000",
          "125835.015000",
          "125835.015000",
          "125835.015000",
          "125835.015000",
          "125835.031000",
          "125835.031000",
          "125835.031000",
          "125835.031000",
          "125835.031000",
          "125835.031000",
          "125835.031000",
          "125835.046000",
          "125835.046000",
          "125835.046000",
          "125835.046000",
          "125835.046000",
          "125835.046000",
          "125835.062000",
          "125914.984000",
          "125914.984000",
          "125914.984000",
          "125915.000000",
          "125915.000000",
          "125915.000000",
          "125915.000000",
          "125915.000000",
          "125915.000000",
          "125915.015000",
          "125915.015000",
          "125915.015000",
          "125915.015000",
          "125915.015000",
          "125915.031000",
          "125915.031000",
          "125915.031000",
          "125915.031000",
          "125915.031000",
          "125915.031000",
          "125954.984000",
          "125954.984000",
          "125955.000000",
          "125955.000000",
          "125955.000000",
          "125955.000000",
          "125955.000000",
          "125955.000000",
          "125955.015000",
          "125955.015000",
          "125955.015000",
          "125955.015000",
          "125955.015000",
          "125955.015000",
          "125955.015000",
          "125955.031000",
          "125955.031000",
          "125955.031000",
          "125955.031000",
          "125955.031000",
          "130034.984000",
          "130034.984000",
          "130035.000000",
          "130035.000000",
          "130035.000000",
          "130035.000000",
          "130035.015000",
          "130035.015000",
          "130035.015000",
          "130035.015000",
          "130035.031000",
          "130035.031000",
          "130035.031000",
          "130035.031000",
          "130035.031000",
          "130035.031000",
          "130035.046000",
          "130035.046000",
          "130035.046000",
          "130035.046000",
          "130114.984000",
          "130114.984000",
          "130115.000000",
          "130115.000000",
          "130115.000000",
          "130115.000000",
          "130115.000000",
          "130115.000000",
          "130115.015000",
          "130115.015000",
          "130115.015000",
          "130115.015000",
          "130115.015000",
          "130115.031000",
          "130115.031000",
          "130115.031000",
          "130115.031000",
          "130115.031000",
          "130115.046000",
          "130115.046000",
          "130154.984000",
          "130154.984000",
          "130155.000000",
          "130155.000000",
          "130155.000000",
          "130155.000000",
          "130155.000000",
          "130155.000000",
          "130155.015000",
          "130155.015000",
          "130155.015000",
          "130155.015000",
          "130155.015000",
          "130155.015000",
          "130155.031000",
          "130155.031000",
          "130155.031000",
          "130155.031000",
          "130155.031000",
          "130155.031000",
          "130234.984000",
          "130234.984000",
          "130235.000000",
          "130235.000000",
          "130235.000000",
          "130235.015000",
          "130235.015000",
          "130235.015000",
          "130235.015000",
          "130235.015000",
          "130235.015000",
          "130235.015000",
          "130235.031000",
          "130235.031000",
          "130235.031000",
          "130235.031000",
          "130235.031000",
          "130235.031000",
          "130235.046000",
          "130235.046000",
          "130314.984000",
          "130314.984000",
          "130315.000000",
          "130315.000000",
          "130315.000000",
          "130315.000000",
          "130315.000000",
          "130315.000000",
          "130315.015000",
          "130315.015000",
          "130315.015000",
          "130315.015000",
          "130315.015000",
          "130315.015000",
          "130315.015000",
          "130315.031000",
          "130315.031000",
          "130315.031000",
          "130315.031000",
          "130315.031000",
          "130318.531000",
          "130318.531000"
        ],
        "InstanceNumber": [
          1,
          2,
          3,
          4,
          5,
          6,
          7,
          8,
          9,
          10,
          11,
          12,
          13,
          14,
          15,
          16,
          17,
          18,
          19,
          20,
          21,
          22,
          23,
          24,
          25,
          26,
          27,
          28,
          29,
          30,
          31,
          32,
          33,
          34,
          35,
          36,
          37,
          38,
          39,
          40,
          41,
          42,
          43,
          44,
          45,
          46,
          47,
          48,
          49,
          50,
          51,
          52,
          53,
          54,
          55,
          56,
          57,
          58,
          59,
          60,
          61,
          62,
          63,
          64,
          65,
          66,
          67,
          68,
          69,
          70,
          71,
          72,
          73,
          74,
          75,
          76,
          77,
          78,
          79,
          80,
          81,
          82,
          83,
          84,
          85,
          86,
          87,
          88,
          89,
          90,
          91,
          92,
          93,
          94,
          95,
          96,
          97,
          98,
          99,
          100,
          101,
          102,
          103,
          104,
          105,
          106,
          107,
          108,
          109,
          110,
          111,
          112,
          113,
          114,
          115,
          116,
          117,
          118,
          119,
          120,
          121,
          122,
          123,
          124,
          125,
          126,
          127,
          128,
          129,
          130,
          131,
          132,
          133,
          134,
          135,
          136,
          137,
          138,
          139,
          140,
          141,
          142,
          143,
          144,
          145,
          146,
          147,
          148,
          149,
          150,
          151,
          152,
          153,
          154,
          155,
          156,
          157,
          158,
          159,
          160,
          161,
          162,
          163,
          164
        ],
        "WindowCenter": [
          1048.0,
          1047.0,
          1047.0,
          1047.0,
          1046.0,
          1048.0,
          1047.0,
          1047.0,
          1047.0,
          1047.0,
          1049.0,
          1048.0,
          1047.0,
          1047.0,
          1047.0,
          1048.0,
          1050.0,
          1049.0,
          1047.0,
          1047.0,
          1047.0,
          1048.0,
          1048.0,
          1047.0,
          1047.0,
          1048.0,
          1049.0,
          1048.0,
          1046.0,
          1047.0,
          1048.0,
          1048.0,
          1048.0,
          1049.0,
          1047.0,
          1046.0,
          1047.0,
          1048.0,
          1048.0,
          1046.0,
          1046.0,
          1048.0,
          1049.0,
          1049.0,
          1049.0,
          1048.0,
          1048.0,
          1048.0,
          1049.0,
          1049.0,
          1050.0,
          1047.0,
          1049.0,
          1049.0,
          1049.0,
          1046.0,
          1046.0,
          1046.0,
          1046.0,
          1049.0,
          1048.0,
          1046.0,
          1046.0,
          1047.0,
          1048.0,
          1049.0,
          1049.0,
          1050.0,
          1048.0,
          1047.0,
          1048.0,
          1048.0,
          1048.0,
          1049.0,
          1049.0,
          1049.0,
          1048.0,
          1047.0,
          1047.0,
          1046.0,
          1048.0,
          1047.0,
          1046.0,
          1045.0,
          1046.0,
          1047.0,
          1049.0,
          1048.0,
          1048.0,
          1047.0,
          1049.0,
          1049.0,
          1049.0,
          1046.0,
          1048.0,
          1049.0,
          1048.0,
          1049.0,
          1048.0,
          1047.0,
          1048.0,
          1046.0,
          1046.0,
          1045.0,
          1046.0,
          1047.0,
          1048.0,
          1048.0,
          1047.0,
          1047.0,
          1048.0,
          1048.0,
          1048.0,
          1048.0,
          1049.0,
          1051.0,
          1048.0,
          1047.0,
          1048.0,
          1052.0,
          1050.0,
          1047.0,
          1046.0,
          1047.0,
          1050.0,
          1049.0,
          1050.0,
          1048.0,
          1048.0,
          1049.0,
          1048.0,
          1049.0,
          1047.0,
          1047.0,
          1047.0,
          1048.0,
          1046.0,
          1047.0,
          1048.0,
          1049.0,
          1048.0,
          1046.0,
          1046.0,
          1046.0,
          1048.0,
          1049.0,
          1047.0,
          1047.0,
          1046.0,
          1047.0,
          1048.0,
          1048.0,
          1049.0,
          1047.0,
          1048.0,
          1048.0,
          1047.0,
          1048.0,
          1047.0,
          1047.0,
          1047.0,
          1049.0,
          1049.0,
          1049.0
        ],
        "WindowWidth": [
          2789.0,
          2789.0,
          2783.0,
          2788.0,
          2786.0,
          2795.0,
          2791.0,
          2791.0,
          2786.0,
          2794.0,
          2800.0,
          2793.0,
          2788.0,
          2783.0,
          2793.0,
          2793.0,
          2797.0,
          2792.0,
          2783.0,
          2780.0,
          2784.0,
          2791.0,
          2786.0,
          2785.0,
          2789.0,
          2788.0,
          2793.0,
          2785.0,
          2784.0,
          2789.0,
          2796.0,
          2793.0,
          2794.0,
          2795.0,
          2785.0,
          2791.0,
          2796.0,
          2793.0,
          2790.0,
          2785.0,
          2792.0,
          2792.0,
          2797.0,
          2803.0,
          2794.0,
          2792.0,
          2794.0,
          2801.0,
          2798.0,
          2800.0,
          2795.0,
          2789.0,
          2803.0,
          2795.0,
          2791.0,
          2784.0,
          2788.0,
          2786.0,
          2785.0,
          2799.0,
          2793.0,
          2782.0,
          2786.0,
          2790.0,
          2789.0,
          2798.0,
          2800.0,
          2802.0,
          2795.0,
          2792.0,
          2789.0,
          2792.0,
          2797.0,
          2792.0,
          2800.0,
          2797.0,
          2796.0,
          2787.0,
          2787.0,
          2790.0,
          2794.0,
          2786.0,
          2784.0,
