{
  "aor": 0.001803109756097561,
  "aqi": 0.0060659696951219505,
  "bids_meta": {
    "AcquisitionMatrixPE": 96,
    "AcquisitionNumber": 1,
    "AcquisitionTime": "12:45:28.857500",
    "BandwidthPerPixelPhaseEncode": 52.083,
    "BaseResolution": 96,
    "BodyPartExamined": "HEAD",
    "ConversionSoftware": "dcm2niix",
    "ConversionSoftwareVersion": "v1.0.20180622 GCC6.3.0",
    "DerivedVendorReportedEchoSpacing": 0.000600004,
    "DeviceSerialNumber": "18926",
    "DwellTime": 2.6e-06,
    "EchoTime": 0.025,
    "EffectiveEchoSpacing": 0.000200001,
    "FlipAngle": 50,
    "ImageOrientationPatientDICOM": [
      0.999992,
      0.00067012,
      0.00404905,
      2.11009e-10,
      0.98658,
      -0.16328
    ],
    "ImageType": [
      "ORIGINAL",
      "PRIMARY",
      "M",
      "ND",
      "ECHO",
      "00",
      "MOSAIC"
    ],
    "InPlanePhaseEncodingDirectionDICOM": "ROW",
    "InstitutionName": "NIMH",
    "InstitutionalDepartmentName": "Department",
    "MRAcquisitionType": "2D",
    "MagneticFieldStrength": 6.98,
    "Manufacturer": "Siemens",
    "ManufacturersModelName": "Investigational_Device_7T",
    "Modality": "MR",
    "ParallelReductionFactorInPlane": 3,
    "PartialFourier": 1,
    "PatientPosition": "HFS",
    "PercentPhaseFOV": 100,
    "PhaseEncodingDirection": "i",
    "PhaseEncodingSteps": 94,
    "PhaseResolution": 1,
    "PixelBandwidth": 2003,
    "ProcedureStepDescription": "MRI_Procedure_Limited",
    "ProtocolName": "NIH_EPI_2.0iso_TR2_Run06",
    "PulseSequenceDetails": "%CustomerSeq%_inati_nih_epi",
    "ReceiveCoilName": "32Ch_Head_7T",
    "ReconMatrixPE": 96,
    "RepetitionTime": 2,
    "SAR": 0.0812638,
    "ScanningSequence": "EP",
    "SequenceName": "epfid2d1_96",
    "SequenceVariant": "SK",
    "SeriesDescription": "NIH_EPI_2.0iso_TR2_Run06",
    "SeriesNumber": 10,
    "ShimSetting": [
      -115,
      322,
      1244,
      1955,
      -97,
      654,
      347,
      -236
    ],
    "SliceThickness": 2,
    "SliceTiming": [
      1.0025,
      0,
      1.04,
      0.035,
      1.0775,
      0.0725,
      1.115,
      0.11,
      1.1525,
      0.1475,
      1.1875,
      0.185,
      1.225,
      0.2225,
      1.2625,
      0.26,
      1.3,
      0.2975,
      1.3375,
      0.3325,
      1.375,
      0.37,
      1.4125,
      0.4075,
      1.45,
      0.445,
      1.485,
      0.4825,
      1.5225,
      0.52,
      1.56,
      0.5575,
      1.5975,
      0.595,
      1.635,
      0.63,
      1.6725,
      0.6675,
      1.71,
      0.705,
      1.7475,
      0.7425,
      1.7825,
      0.78,
      1.82,
      0.8175,
      1.8575,
      0.855,
      1.895,
      0.89,
      1.9325,
      0.9275,
      1.97,
      0.965
    ],
    "SoftwareVersions": "syngo_MR_B17",
    "SpacingBetweenSlices": 2,
    "StationName": "FMRIFD7T",
    "TaskName": "FullFovNoAttentionTask",
    "TotalReadoutTime": 0.0190001,
    "TxRefAmp": 287,
    "dataset": "ds001555",
    "dcmmeta_affine": [
      [
        -1.9999831914901733,
        4.2201880878778297e-10,
        0.008208253420889378,
        95.76705169677734
      ],
      [
        -0.0013402394251897931,
        1.973159670829773,
        -0.32655632495880127,
        -62.44346618652344
      ],
      [
        0.008098097518086433,
        0.32655906677246094,
        1.9731431007385254,
        -46.29322052001953
      ],
      [
        0.0,
        0.0,
        0.0,
        1.0
      ]
    ],
    "dcmmeta_reorient_transform": [
      [
        0.0,
        -1.0,
        0.0,
        95.0
      ],
      [
        1.0,
        0.0,
        0.0,
        0.0
      ],
      [
        0.0,
        0.0,
        1.0,
        0.0
      ],
      [
        0.0,
        0.0,
        0.0,
        1.0
      ]
    ],
    "dcmmeta_shape": [
      96,
      96,
      54,
      164
    ],
    "dcmmeta_slice_dim": 2,
    "dcmmeta_version": 0.6,
    "global": {
      "const": {
        "AcquisitionMatrix": [
          0,
          96,
          96,
          0
        ],
        "Allergies": "No Known Allergies",
        "AngioFlag": "N",
        "BitsAllocated": 16,
        "BitsStored": 12,
        "BodyPartExamined": "HEAD",
        "Columns": 768,
        "EchoNumbers": 1,
        "EchoTime": 25.0,
        "EchoTrainLength": 1,
        "FlipAngle": 50.0,
        "HighBit": 11,
        "ImageOrientationPatient": [
          0.99999157803662,
          0.00067011969073,
          0.00404904870684,
          2.110094e-10,
          0.98657984636313,
          -0.1632795356133
        ],
        "ImagePositionPatient": [
          -767.761392775,
          -788.43868109794,
          91.732777677076
        ],
        "ImageType": [
          "ORIGINAL",
          "PRIMARY",
          "M",
          "ND",
          "ECHO_00",
          "MOSAIC"
        ],
        "ImagedNucleus": "1H",
        "ImagingFrequency": 297.205069,
        "InPlanePhaseEncodingDirection": "ROW",
        "LargestImagePixelValue": 4095,
        "MRAcquisitionType": "2D",
        "MagneticFieldStrength": 6.98,
        "Manufacturer": "SIEMENS",
        "ManufacturerModelName": "Investigational_Device_7T",
        "Modality": "MR",
        "NumberOfAverages": 1.0,
        "NumberOfPhaseEncodingSteps": 94,
        "PercentPhaseFieldOfView": 100.0,
        "PercentSampling": 100.0,
        "PerformedProcedureStepStartTime": "115404.078000",
        "PhotometricInterpretation": "MONOCHROME2",
        "PixelBandwidth": 2003.0,
        "PixelRepresentation": 0,
        "PixelSpacing": [
          2.0,
          2.0
        ],
        "PositionReferenceIndicator": "",
        "ProcedureCodeSequence": [
          {
            "CodeMeaning": "MRI Procedure Limited",
            "CodeValue": "MI01491",
            "CodingSchemeDesignator": "USA Standard",
            "ContextIdentifier": "4000109576"
          }
        ],
        "ProtocolName": "NIH_EPI_2.0iso_TR2_Run06",
        "ReferencedStudySequence": [
          {
            "ReferencedSOPClassUID": "1.2.840.10008.3.1.2.3.1",
            "ReferencedSOPInstanceUID": "1.2.840.113564.9.1.2723958737.61.2.5000075338"
          }
        ],
        "RepetitionTime": 2000.0,
        "RequestedProcedureCodeSequence": [
          {
            "CodeMeaning": "MRI Procedure Limited",
            "CodeValue": "MI01491",
            "CodingSchemeDesignator": "USA Standard",
            "ContextIdentifier": "4000109576"
          }
        ],
        "RequestingService": "MHED",
        "Rows": 768,
        "SAR": 0.0812637748338,
        "SamplesPerPixel": 1,
        "ScanningSequence": "EP",
        "SequenceName": "epfid2d1_96",
        "SequenceVariant": "SK",
        "SeriesDescription": "NIH_EPI_2.0iso_TR2_Run06",
        "SeriesNumber": 10,
        "SliceLocation": -35.082879977569,
        "SliceThickness": 2.0,
        "SmallestImagePixelValue": 0,
        "SoftwareVersions": "syngo MR B17",
        "SpacingBetweenSlices": 2.0000000184226,
        "TransmitCoilName": "32Ch_Head_7T",
        "VariableFlipAngleFlag": "N",
        "WindowCenterWidthExplanation": "Algo1",
        "dBdt": 0.0
      },
      "slices": {}
    },
    "modality": "bold",
    "run_id": 7,
    "session_id": "05",
    "subject_id": "002",
    "task_id": "FullFovNoAttentionTask",
    "time": {
      "samples": {
        "AcquisitionNumber": [
          1,
          2,
          3,
          4,
          5,
          6,
          7,
          8,
          9,
          10,
          11,
          12,
          13,
          14,
          15,
          16,
          17,
          18,
          19,
          20,
          21,
          22,
          23,
          24,
          25,
          26,
          27,
          28,
          29,
          30,
          31,
          32,
          33,
          34,
          35,
          36,
          37,
          38,
          39,
          40,
          41,
          42,
          43,
          44,
          45,
          46,
          47,
          48,
          49,
          50,
          51,
          52,
          53,
          54,
          55,
          56,
          57,
          58,
          59,
          60,
          61,
          62,
          63,
          64,
          65,
          66,
          67,
          68,
          69,
          70,
          71,
          72,
          73,
          74,
          75,
          76,
          77,
          78,
          79,
          80,
          81,
          82,
          83,
          84,
          85,
          86,
          87,
          88,
          89,
          90,
          91,
          92,
          93,
          94,
          95,
          96,
          97,
          98,
          99,
          100,
          101,
          102,
          103,
          104,
          105,
          106,
          107,
          108,
          109,
          110,
          111,
          112,
          113,
          114,
          115,
          116,
          117,
          118,
          119,
          120,
          121,
          122,
          123,
          124,
          125,
          126,
          127,
          128,
          129,
          130,
          131,
          132,
          133,
          134,
          135,
          136,
          137,
          138,
          139,
          140,
          141,
          142,
          143,
          144,
          145,
          146,
          147,
          148,
          149,
          150,
          151,
          152,
          153,
          154,
          155,
          156,
          157,
          158,
          159,
          160,
          161,
          162,
          163,
          164
        ],
        "AcquisitionTime": [
          "124528.857500",
          "124532.875000",
          "124534.882500",
          "124536.890000",
          "124538.897500",
          "124540.905000",
          "124542.915000",
          "124544.922500",
          "124546.930000",
          "124548.937500",
          "124550.945000",
          "124552.955000",
          "124554.962500",
          "124556.970000",
          "124558.977500",
          "124600.987500",
          "124602.995000",
          "124605.002500",
          "124607.010000",
          "124609.017500",
          "124611.027500",
          "124613.035000",
          "124615.042500",
          "124617.050000",
          "124619.057500",
          "124621.067500",
          "124623.075000",
          "124625.082500",
          "124627.090000",
          "124629.097500",
          "124631.107500",
          "124633.115000",
          "124635.122500",
          "124637.130000",
          "124639.140000",
          "124641.147500",
          "124643.155000",
          "124645.162500",
          "124647.170000",
          "124649.180000",
          "124651.187500",
          "124653.195000",
          "124655.202500",
          "124657.210000",
          "124659.220000",
          "124701.227500",
          "124703.235000",
          "124705.242500",
          "124707.252500",
          "124709.260000",
          "124711.267500",
          "124713.275000",
          "124715.282500",
          "124717.292500",
          "124719.300000",
          "124721.307500",
          "124723.315000",
          "124725.322500",
          "124727.332500",
          "124729.340000",
          "124731.347500",
          "124733.355000",
          "124735.365000",
          "124737.372500",
          "124739.380000",
          "124741.387500",
          "124743.395000",
          "124745.405000",
          "124747.412500",
          "124749.420000",
          "124751.427500",
          "124753.435000",
          "124755.445000",
          "124757.452500",
          "124759.460000",
          "124801.467500",
          "124803.475000",
          "124805.485000",
          "124807.492500",
          "124809.500000",
          "124811.507500",
          "124813.517500",
          "124815.525000",
          "124817.532500",
          "124819.540000",
          "124821.547500",
          "124823.557500",
          "124825.565000",
          "124827.572500",
          "124829.580000",
          "124831.587500",
          "124833.597500",
          "124835.605000",
          "124837.612500",
          "124839.620000",
          "124841.630000",
          "124843.637500",
          "124845.645000",
          "124847.652500",
          "124849.660000",
          "124851.670000",
          "124853.677500",
          "124855.685000",
          "124857.692500",
          "124859.700000",
          "124901.710000",
          "124903.717500",
          "124905.725000",
          "124907.732500",
          "124909.742500",
          "124911.750000",
          "124913.757500",
          "124915.765000",
          "124917.772500",
          "124919.782500",
          "124921.790000",
          "124923.797500",
          "124925.805000",
          "124927.812500",
          "124929.822500",
          "124931.830000",
          "124933.837500",
          "124935.845000",
          "124937.855000",
          "124939.862500",
          "124941.870000",
          "124943.877500",
          "124945.885000",
          "124947.895000",
          "124949.902500",
          "124951.910000",
          "124953.917500",
          "124955.925000",
          "124957.935000",
          "124959.942500",
          "125001.950000",
          "125003.957500",
          "125005.965000",
          "125007.975000",
          "125009.982500",
          "125011.990000",
          "125013.997500",
          "125016.007500",
          "125018.015000",
          "125020.022500",
          "125022.030000",
          "125024.037500",
          "125026.047500",
          "125028.055000",
          "125030.062500",
          "125032.070000",
          "125034.077500",
          "125036.087500",
          "125038.095000",
          "125040.102500",
          "125042.110000",
          "125044.120000",
          "125046.127500",
          "125048.135000",
          "125050.142500",
          "125052.150000",
          "125054.160000",
          "125056.167500",
          "125058.175000"
        ],
        "ContentTime": [
          "124615.578000",
          "124615.593000",
          "124615.593000",
          "124615.593000",
          "124615.593000",
          "124615.593000",
          "124615.593000",
          "124615.609000",
          "124615.609000",
          "124615.609000",
          "124615.609000",
          "124615.609000",
          "124615.609000",
          "124615.609000",
          "124615.625000",
          "124615.625000",
          "124615.625000",
          "124615.625000",
          "124615.625000",
          "124615.625000",
          "124615.640000",
          "124615.640000",
          "124655.578000",
          "124655.578000",
          "124655.578000",
          "124655.593000",
          "124655.593000",
          "124655.593000",
          "124655.593000",
          "124655.593000",
          "124655.609000",
          "124655.609000",
          "124655.609000",
          "124655.609000",
          "124655.609000",
          "124655.609000",
          "124655.609000",
          "124655.625000",
          "124655.625000",
          "124655.625000",
          "124655.640000",
          "124655.640000",
          "124735.578000",
          "124735.578000",
          "124735.578000",
          "124735.578000",
          "124735.578000",
          "124735.593000",
          "124735.593000",
          "124735.593000",
          "124735.609000",
          "124735.609000",
          "124735.609000",
          "124735.609000",
          "124735.609000",
          "124735.609000",
          "124735.625000",
          "124735.625000",
          "124735.625000",
          "124735.625000",
          "124735.625000",
          "124735.625000",
          "124815.578000",
          "124815.578000",
          "124815.578000",
          "124815.578000",
          "124815.578000",
          "124815.593000",
          "124815.593000",
          "124815.593000",
          "124815.593000",
          "124815.593000",
          "124815.593000",
          "124815.609000",
          "124815.609000",
          "124815.609000",
          "124815.609000",
          "124815.609000",
          "124815.609000",
          "124815.609000",
          "124815.625000",
          "124815.625000",
          "124855.578000",
          "124855.578000",
          "124855.578000",
          "124855.578000",
          "124855.578000",
          "124855.593000",
          "124855.593000",
          "124855.609000",
          "124855.609000",
          "124855.609000",
          "124855.609000",
          "124855.609000",
          "124855.609000",
          "124855.609000",
          "124855.625000",
          "124855.625000",
          "124855.625000",
          "124855.625000",
          "124855.625000",
          "124855.625000",
          "124935.578000",
          "124935.578000",
          "124935.578000",
          "124935.593000",
          "124935.593000",
          "124935.593000",
          "124935.593000",
          "124935.593000",
          "124935.593000",
          "124935.593000",
          "124935.609000",
          "124935.609000",
          "124935.609000",
          "124935.609000",
          "124935.609000",
          "124935.625000",
          "124935.625000",
          "124935.625000",
          "124935.625000",
          "124935.625000",
          "125015.578000",
          "125015.578000",
          "125015.578000",
          "125015.593000",
          "125015.593000",
          "125015.593000",
          "125015.593000",
          "125015.593000",
          "125015.593000",
          "125015.593000",
          "125015.609000",
          "125015.609000",
          "125015.609000",
          "125015.609000",
          "125015.609000",
          "125015.609000",
          "125015.625000",
          "125015.625000",
          "125015.625000",
          "125015.625000",
          "125055.578000",
          "125055.593000",
          "125055.593000",
          "125055.593000",
          "125055.593000",
          "125055.593000",
          "125055.593000",
          "125055.609000",
          "125055.609000",
          "125055.609000",
          "125055.609000",
          "125055.609000",
          "125055.609000",
          "125055.625000",
          "125055.625000",
          "125055.625000",
          "125055.625000",
          "125055.625000",
          "125055.625000",
          "125055.640000",
          "125058.703000",
          "125058.718000"
        ],
        "InstanceCreationTime": [
          "124615.578000",
          "124615.593000",
          "124615.593000",
          "124615.593000",
          "124615.593000",
          "124615.593000",
          "124615.593000",
          "124615.609000",
          "124615.609000",
          "124615.609000",
          "124615.609000",
          "124615.609000",
          "124615.609000",
          "124615.609000",
          "124615.625000",
          "124615.625000",
          "124615.625000",
          "124615.625000",
          "124615.625000",
          "124615.625000",
          "124615.640000",
          "124615.640000",
          "124655.578000",
          "124655.578000",
          "124655.578000",
          "124655.593000",
          "124655.593000",
          "124655.593000",
          "124655.593000",
          "124655.593000",
          "124655.609000",
          "124655.609000",
          "124655.609000",
          "124655.609000",
          "124655.609000",
          "124655.609000",
          "124655.609000",
          "124655.625000",
          "124655.625000",
          "124655.625000",
          "124655.640000",
          "124655.640000",
          "124735.578000",
          "124735.578000",
          "124735.578000",
          "124735.578000",
          "124735.578000",
          "124735.593000",
          "124735.593000",
          "124735.593000",
          "124735.609000",
          "124735.609000",
          "124735.609000",
          "124735.609000",
          "124735.609000",
          "124735.609000",
          "124735.625000",
          "124735.625000",
          "124735.625000",
          "124735.625000",
          "124735.625000",
          "124735.625000",
          "124815.578000",
          "124815.578000",
          "124815.578000",
          "124815.578000",
          "124815.578000",
          "124815.593000",
          "124815.593000",
          "124815.593000",
          "124815.593000",
          "124815.593000",
          "124815.593000",
          "124815.609000",
          "124815.609000",
          "124815.609000",
          "124815.609000",
          "124815.609000",
          "124815.609000",
          "124815.609000",
          "124815.625000",
          "124815.625000",
          "124855.578000",
          "124855.578000",
          "124855.578000",
          "124855.578000",
          "124855.578000",
          "124855.593000",
          "124855.593000",
          "124855.609000",
          "124855.609000",
          "124855.609000",
          "124855.609000",
          "124855.609000",
          "124855.609000",
          "124855.609000",
          "124855.625000",
          "124855.625000",
          "124855.625000",
          "124855.625000",
          "124855.625000",
          "124855.625000",
          "124935.578000",
          "124935.578000",
          "124935.578000",
          "124935.593000",
          "124935.593000",
          "124935.593000",
          "124935.593000",
          "124935.593000",
          "124935.593000",
          "124935.593000",
          "124935.609000",
          "124935.609000",
          "124935.609000",
          "124935.609000",
          "124935.609000",
          "124935.625000",
          "124935.625000",
          "124935.625000",
          "124935.625000",
          "124935.625000",
          "125015.578000",
          "125015.578000",
          "125015.578000",
          "125015.593000",
          "125015.593000",
          "125015.593000",
          "125015.593000",
          "125015.593000",
          "125015.593000",
          "125015.593000",
          "125015.609000",
          "125015.609000",
          "125015.609000",
          "125015.609000",
          "125015.609000",
          "125015.609000",
          "125015.625000",
          "125015.625000",
          "125015.625000",
          "125015.625000",
          "125055.578000",
          "125055.593000",
          "125055.593000",
          "125055.593000",
          "125055.593000",
          "125055.593000",
          "125055.593000",
          "125055.609000",
          "125055.609000",
          "125055.609000",
          "125055.609000",
          "125055.609000",
          "125055.609000",
          "125055.625000",
          "125055.625000",
          "125055.625000",
          "125055.625000",
          "125055.625000",
          "125055.625000",
          "125055.640000",
          "125058.703000",
          "125058.718000"
        ],
        "InstanceNumber": [
          1,
          2,
          3,
          4,
          5,
          6,
          7,
          8,
          9,
          10,
          11,
          12,
          13,
          14,
          15,
          16,
          17,
          18,
          19,
          20,
          21,
          22,
          23,
          24,
          25,
          26,
          27,
          28,
          29,
          30,
          31,
          32,
          33,
          34,
          35,
          36,
          37,
          38,
          39,
          40,
          41,
          42,
          43,
          44,
          45,
          46,
          47,
          48,
          49,
          50,
          51,
          52,
          53,
          54,
          55,
          56,
          57,
          58,
          59,
          60,
          61,
          62,
          63,
          64,
          65,
          66,
          67,
          68,
          69,
          70,
          71,
          72,
          73,
          74,
          75,
          76,
          77,
          78,
          79,
          80,
          81,
          82,
          83,
          84,
          85,
          86,
          87,
          88,
          89,
          90,
          91,
          92,
          93,
          94,
          95,
          96,
          97,
          98,
          99,
          100,
          101,
          102,
          103,
          104,
          105,
          106,
          107,
          108,
          109,
          110,
          111,
          112,
          113,
          114,
          115,
          116,
          117,
          118,
          119,
          120,
          121,
          122,
          123,
          124,
          125,
          126,
          127,
          128,
          129,
          130,
          131,
          132,
          133,
          134,
          135,
          136,
          137,
          138,
          139,
          140,
          141,
          142,
          143,
          144,
          145,
          146,
          147,
          148,
          149,
          150,
          151,
          152,
          153,
          154,
          155,
          156,
          157,
          158,
          159,
          160,
          161,
          162,
          163,
          164
        ],
        "WindowCenter": [
          1044.0,
          1044.0,
          1045.0,
          1047.0,
          1045.0,
          1046.0,
          1046.0,
          1047.0,
          1047.0,
          1045.0,
          1045.0,
          1045.0,
          1047.0,
          1048.0,
          1045.0,
          1044.0,
          1043.0,
          1043.0,
          1045.0,
          1044.0,
          1043.0,
          1042.0,
          1042.0,
          1043.0,
          1043.0,
          1046.0,
          1046.0,
          1045.0,
          1045.0,
          1049.0,
          1047.0,
          1046.0,
          1045.0,
          1047.0,
          1043.0,
          1044.0,
          1045.0,
          1043.0,
          1043.0,
          1047.0,
          1044.0,
          1042.0,
          1043.0,
          1042.0,
          1042.0,
          1044.0,
          1046.0,
          1046.0,
          1044.0,
          1045.0,
          1046.0,
          1045.0,
          1048.0,
          1047.0,
          1046.0,
          1047.0,
          1045.0,
          1043.0,
          1045.0,
          1045.0,
          1042.0,
          1043.0,
          1043.0,
          1041.0,
          1044.0,
          1044.0,
          1043.0,
          1044.0,
          1045.0,
          1047.0,
          1049.0,
          1046.0,
          1044.0,
          1043.0,
          1045.0,
          1043.0,
          1045.0,
          1044.0,
          1042.0,
          1044.0,
          1043.0,
          1044.0,
          1045.0,
          1043.0,
          1044.0,
          1046.0,
          1045.0,
          1045.0,
          1047.0,
          1047.0,
          1047.0,
          1047.0,
          1048.0,
          1047.0,
          1046.0,
          1047.0,
          1049.0,
          1047.0,
          1045.0,
          1046.0,
          1045.0,
          1046.0,
          1048.0,
          1047.0,
          1047.0,
          1048.0,
          1048.0,
          1051.0,
          1050.0,
          1047.0,
          1044.0,
          1043.0,
          1042.0,
          1044.0,
          1043.0,
          1043.0,
          1043.0,
          1044.0,
          1045.0,
          1045.0,
          1046.0,
          1046.0,
          1047.0,
          1046.0,
          1046.0,
          1047.0,
          1048.0,
          1046.0,
          1046.0,
          1045.0,
          1047.0,
          1047.0,
          1045.0,
          1042.0,
          1043.0,
          1043.0,
          1043.0,
          1046.0,
          1045.0,
          1044.0,
          1046.0,
          1044.0,
          1048.0,
          1047.0,
          1044.0,
          1045.0,
          1045.0,
          1045.0,
          1045.0,
          1048.0,
          1047.0,
          1046.0,
          1046.0,
          1049.0,
          1048.0,
          1046.0,
          1043.0,
          1044.0,
          1046.0,
          1046.0,
          1045.0,
          1046.0,
          1045.0,
          1047.0
        ],
        "WindowWidth": [
          2776.0,
          2781.0,
          2788.0,
          2789.0,
          2786.0,
          2793.0,
          2795.0,
          2794.0,
          2796.0,
          2789.0,
          2789.0,
          2791.0,
          2800.0,
          2810.0,
          2796.0,
          2788.0,
          2783.0,
          2781.0,
          2796.0,
          2792.0,
          2776.0,
          2778.0,
          2777.0,
          2776.0,
          2786.0,
          2789.0,
          2789.0,
          2790.0,
          2798.0,
          2801.0,
          2792.0,
          2791.0,
          2796.0,
          2798.0,
          2781.0,
          2778.0,
          2785.0,
          2781.0,
          2789.0,
          2796.0,
          2783.0,
          2779.0,
          2784.0,
          2778.0,
          2781.0,
          2784.0,
          2797.0,
          2793.0,
          2787.0,
          2791.0,
          2786.0,
          2789.0,
          2800.0,
          2794.0,
          2795.0,
          2794.0,
          2784.0,
          2784.0,
          2792.0,
          2784.0,
          2778.0,
          2778.0,
          2772.0,
          2776.0,
          2789.0,
          2783.0,
          2777.0,
          2779.0,
          2788.0,
          2805.0,
          2810.0,
          2790.0,
          2783.0,
          2785.0,
          2790.0,
          2783.0,
          2789.0,
          2787.0,
          2779.0,
          2786.0,
          2780.0,
          2777.0,
