{
  "aor": 0.0012510365853658537,
  "aqi": 0.003908941341463414,
  "bids_meta": {
    "AcquisitionMatrixPE": 96,
    "AcquisitionNumber": 1,
    "AcquisitionTime": "17:55:35.522500",
    "BandwidthPerPixelPhaseEncode": 52.083,
    "BaseResolution": 96,
    "BodyPartExamined": "HEAD",
    "ConversionSoftware": "dcm2niix",
    "ConversionSoftwareVersion": "v1.0.20180622 GCC6.3.0",
    "DerivedVendorReportedEchoSpacing": 0.000600004,
    "DeviceSerialNumber": "18926",
    "DwellTime": 2.6e-06,
    "EchoTime": 0.025,
    "EffectiveEchoSpacing": 0.000200001,
    "FlipAngle": 50,
    "ImageOrientationPatientDICOM": [
      0.999992,
      0.000811021,
      0.0040232,
      2.21017e-10,
      0.98028,
      -0.197611
    ],
    "ImageType": [
      "ORIGINAL",
      "PRIMARY",
      "M",
      "ND",
      "ECHO",
      "00",
      "MOSAIC"
    ],
    "InPlanePhaseEncodingDirectionDICOM": "ROW",
    "InstitutionName": "NIMH",
    "InstitutionalDepartmentName": "Department",
    "MRAcquisitionType": "2D",
    "MagneticFieldStrength": 6.98,
    "Manufacturer": "Siemens",
    "ManufacturersModelName": "Investigational_Device_7T",
    "Modality": "MR",
    "ParallelReductionFactorInPlane": 3,
    "PartialFourier": 1,
    "PatientPosition": "HFS",
    "PercentPhaseFOV": 100,
    "PhaseEncodingDirection": "i",
    "PhaseEncodingSteps": 94,
    "PhaseResolution": 1,
    "PixelBandwidth": 2003,
    "ProcedureStepDescription": "MRI_Procedure_Limited",
    "ProtocolName": "NIH_EPI_2.0iso_TR2_Run14",
    "PulseSequenceDetails": "%CustomerSeq%_inati_nih_epi",
    "ReceiveCoilName": "32Ch_Head_7T",
    "ReconMatrixPE": 96,
    "RepetitionTime": 2,
    "SAR": 0.0696005,
    "ScanningSequence": "EP",
    "SequenceName": "epfid2d1_96",
    "SequenceVariant": "SK",
    "SeriesDescription": "NIH_EPI_2.0iso_TR2_Run14",
    "SeriesNumber": 18,
    "ShimSetting": [
      -54,
      274,
      831,
      868,
      -231,
      975,
      388,
      -502
    ],
    "SliceThickness": 2,
    "SliceTiming": [
      1.005,
      0,
      1.0425,
      0.0375,
      1.08,
      0.075,
      1.1175,
      0.1125,
      1.1525,
      0.15,
      1.19,
      0.1875,
      1.2275,
      0.225,
      1.265,
      0.2625,
      1.3025,
      0.2975,
      1.34,
      0.335,
      1.3775,
      0.3725,
      1.415,
      0.41,
      1.45,
      0.4475,
      1.4875,
      0.485,
      1.525,
      0.5225,
      1.5625,
      0.56,
      1.6,
      0.595,
      1.6375,
      0.6325,
      1.675,
      0.67,
      1.7125,
      0.7075,
      1.7475,
      0.745,
      1.785,
      0.7825,
      1.8225,
      0.82,
      1.86,
      0.8575,
      1.8975,
      0.8925,
      1.935,
      0.93,
      1.9725,
      0.9675
    ],
    "SoftwareVersions": "syngo_MR_B17",
    "SpacingBetweenSlices": 2,
    "StationName": "FMRIFD7T",
    "TaskName": "HalfFovNoTask",
    "TotalReadoutTime": 0.0190001,
    "TxRefAmp": 321,
    "dataset": "ds001555",
    "dcmmeta_affine": [
      [
        -1.9999831914901733,
        4.4203418703148145e-10,
        0.008208253420889378,
        95.76705169677734
      ],
      [
        -0.0016220425022765994,
        1.960560917854309,
        -0.3952191174030304,
        -55.294212341308594
      ],
      [
        0.008046390488743782,
        0.39522242546081543,
        1.960544466972351,
        -48.509117126464844
      ],
      [
        0.0,
        0.0,
        0.0,
        1.0
      ]
    ],
    "dcmmeta_reorient_transform": [
      [
        0.0,
        -1.0,
        0.0,
        95.0
      ],
      [
        1.0,
        0.0,
        0.0,
        0.0
      ],
      [
        0.0,
        0.0,
        1.0,
        0.0
      ],
      [
        0.0,
        0.0,
        0.0,
        1.0
      ]
    ],
    "dcmmeta_shape": [
      96,
      96,
      54,
      164
    ],
    "dcmmeta_slice_dim": 2,
    "dcmmeta_version": 0.6,
    "global": {
      "const": {
        "AcquisitionMatrix": [
          0,
          96,
          96,
          0
        ],
        "Allergies": "No Known Allergies",
        "AngioFlag": "N",
        "BitsAllocated": 16,
        "BitsStored": 12,
        "BodyPartExamined": "HEAD",
        "Columns": 768,
        "EchoNumbers": 1,
        "EchoTime": 25.0,
        "EchoTrainLength": 1,
        "FlipAngle": 50.0,
        "HighBit": 11,
        "ImageOrientationPatient": [
          0.99999157803651,
          0.00081102126218,
          0.0040231953173,
          2.210171e-10,
          0.9802804733507,
          -0.1976112182224
        ],
        "ImagePositionPatient": [
          -767.7613927826,
          -790.25256366957,
          119.1281658306
        ],
        "ImageType": [
          "ORIGINAL",
          "PRIMARY",
          "M",
          "ND",
          "ECHO_00",
          "MOSAIC"
        ],
        "ImagedNucleus": "1H",
        "ImagingFrequency": 297.205089,
        "InPlanePhaseEncodingDirection": "ROW",
        "LargestImagePixelValue": 4095,
        "MRAcquisitionType": "2D",
        "MagneticFieldStrength": 6.98,
        "Manufacturer": "SIEMENS",
        "ManufacturerModelName": "Investigational_Device_7T",
        "Modality": "MR",
        "NumberOfAverages": 1.0,
        "NumberOfPhaseEncodingSteps": 94,
        "PercentPhaseFieldOfView": 100.0,
        "PercentSampling": 100.0,
        "PerformedProcedureStepStartTime": "160630.465000",
        "PhotometricInterpretation": "MONOCHROME2",
        "PixelBandwidth": 2003.0,
        "PixelRepresentation": 0,
        "PixelSpacing": [
          2.0,
          2.0
        ],
        "PositionReferenceIndicator": "",
        "ProcedureCodeSequence": [
          {
            "CodeMeaning": "MRI Procedure Limited",
            "CodeValue": "MI01491",
            "CodingSchemeDesignator": "USA Standard",
            "ContextIdentifier": "4000133397"
          }
        ],
        "ProtocolName": "NIH_EPI_2.0iso_TR2_Run14",
        "ReferencedStudySequence": [
          {
            "ReferencedSOPClassUID": "1.2.840.10008.3.1.2.3.1",
            "ReferencedSOPInstanceUID": "1.2.840.113564.9.1.2787814059.53.2.5000099247"
          }
        ],
        "RepetitionTime": 2000.0,
        "RequestedProcedureCodeSequence": [
          {
            "CodeMeaning": "MRI Procedure Limited",
            "CodeValue": "MI01491",
            "CodingSchemeDesignator": "USA Standard",
            "ContextIdentifier": "4000133397"
          }
        ],
        "RequestingService": "NIMH Molecular Imaging Branch",
        "Rows": 768,
        "SAR": 0.06960045299858,
        "SamplesPerPixel": 1,
        "ScanningSequence": "EP",
        "SequenceName": "epfid2d1_96",
        "SequenceVariant": "SK",
        "SeriesDescription": "NIH_EPI_2.0iso_TR2_Run14",
        "SeriesNumber": 18,
        "SliceLocation": -36.232435293683,
        "SliceThickness": 2.0,
        "SmallestImagePixelValue": 0,
        "SoftwareVersions": "syngo MR B17",
        "SpacingBetweenSlices": 2.0000000022588,
        "TransmitCoilName": "32Ch_Head_7T",
        "VariableFlipAngleFlag": "N",
        "WindowCenterWidthExplanation": "Algo1",
        "dBdt": 0.0
      },
      "slices": {}
    },
    "modality": "bold",
    "run_id": 15,
    "session_id": "12",
    "subject_id": "001",
    "task_id": "HalfFovNoTask",
    "time": {
      "samples": {
        "AcquisitionNumber": [
          1,
          2,
          3,
          4,
          5,
          6,
          7,
          8,
          9,
          10,
          11,
          12,
          13,
          14,
          15,
          16,
          17,
          18,
          19,
          20,
          21,
          22,
          23,
          24,
          25,
          26,
          27,
          28,
          29,
          30,
          31,
          32,
          33,
          34,
          35,
          36,
          37,
          38,
          39,
          40,
          41,
          42,
          43,
          44,
          45,
          46,
          47,
          48,
          49,
          50,
          51,
          52,
          53,
          54,
          55,
          56,
          57,
          58,
          59,
          60,
          61,
          62,
          63,
          64,
          65,
          66,
          67,
          68,
          69,
          70,
          71,
          72,
          73,
          74,
          75,
          76,
          77,
          78,
          79,
          80,
          81,
          82,
          83,
          84,
          85,
          86,
          87,
          88,
          89,
          90,
          91,
          92,
          93,
          94,
          95,
          96,
          97,
          98,
          99,
          100,
          101,
          102,
          103,
          104,
          105,
          106,
          107,
          108,
          109,
          110,
          111,
          112,
          113,
          114,
          115,
          116,
          117,
          118,
          119,
          120,
          121,
          122,
          123,
          124,
          125,
          126,
          127,
          128,
          129,
          130,
          131,
          132,
          133,
          134,
          135,
          136,
          137,
          138,
          139,
          140,
          141,
          142,
          143,
          144,
          145,
          146,
          147,
          148,
          149,
          150,
          151,
          152,
          153,
          154,
          155,
          156,
          157,
          158,
          159,
          160,
          161,
          162,
          163,
          164
        ],
        "AcquisitionTime": [
          "175535.522500",
          "175539.537500",
          "175541.547500",
          "175543.555000",
          "175545.562500",
          "175547.570000",
          "175549.580000",
          "175551.587500",
          "175553.595000",
          "175555.602500",
          "175557.610000",
          "175559.620000",
          "175601.627500",
          "175603.635000",
          "175605.642500",
          "175607.650000",
          "175609.660000",
          "175611.667500",
          "175613.675000",
          "175615.682500",
          "175617.690000",
          "175619.700000",
          "175621.707500",
          "175623.715000",
          "175625.722500",
          "175627.732500",
          "175629.740000",
          "175631.747500",
          "175633.755000",
          "175635.762500",
          "175637.772500",
          "175639.780000",
          "175641.787500",
          "175643.795000",
          "175645.802500",
          "175647.812500",
          "175649.820000",
          "175651.827500",
          "175653.835000",
          "175655.845000",
          "175657.852500",
          "175659.860000",
          "175701.867500",
          "175703.875000",
          "175705.885000",
          "175707.892500",
          "175709.900000",
          "175711.907500",
          "175713.915000",
          "175715.925000",
          "175717.932500",
          "175719.940000",
          "175721.947500",
          "175723.957500",
          "175725.965000",
          "175727.972500",
          "175729.980000",
          "175731.987500",
          "175733.997500",
          "175736.005000",
          "175738.012500",
          "175740.020000",
          "175742.027500",
          "175744.037500",
          "175746.045000",
          "175748.052500",
          "175750.060000",
          "175752.067500",
          "175754.077500",
          "175756.085000",
          "175758.092500",
          "175800.100000",
          "175802.110000",
          "175804.117500",
          "175806.125000",
          "175808.132500",
          "175810.140000",
          "175812.150000",
          "175814.157500",
          "175816.165000",
          "175818.172500",
          "175820.180000",
          "175822.190000",
          "175824.197500",
          "175826.205000",
          "175828.212500",
          "175830.222500",
          "175832.230000",
          "175834.237500",
          "175836.245000",
          "175838.252500",
          "175840.262500",
          "175842.270000",
          "175844.277500",
          "175846.285000",
          "175848.292500",
          "175850.302500",
          "175852.310000",
          "175854.317500",
          "175856.325000",
          "175858.335000",
          "175900.342500",
          "175902.350000",
          "175904.357500",
          "175906.365000",
          "175908.375000",
          "175910.382500",
          "175912.390000",
          "175914.397500",
          "175916.405000",
          "175918.415000",
          "175920.422500",
          "175922.430000",
          "175924.437500",
          "175926.445000",
          "175928.455000",
          "175930.462500",
          "175932.470000",
          "175934.477500",
          "175936.487500",
          "175938.495000",
          "175940.502500",
          "175942.510000",
          "175944.517500",
          "175946.527500",
          "175948.535000",
          "175950.542500",
          "175952.550000",
          "175954.557500",
          "175956.567500",
          "175958.575000",
          "180000.582500",
          "180002.590000",
          "180004.600000",
          "180006.607500",
          "180008.615000",
          "180010.622500",
          "180012.630000",
          "180014.640000",
          "180016.647500",
          "180018.655000",
          "180020.662500",
          "180022.670000",
          "180024.680000",
          "180026.687500",
          "180028.695000",
          "180030.702500",
          "180032.712500",
          "180034.720000",
          "180036.727500",
          "180038.735000",
          "180040.742500",
          "180042.752500",
          "180044.760000",
          "180046.767500",
          "180048.775000",
          "180050.782500",
          "180052.792500",
          "180054.800000",
          "180056.807500",
          "180058.815000",
          "180100.822500",
          "180102.832500",
          "180104.840000"
        ],
        "ContentTime": [
          "175631.387000",
          "175631.387000",
          "175631.402000",
          "175631.402000",
          "175631.402000",
          "175631.402000",
          "175631.402000",
          "175631.402000",
          "175631.418000",
          "175631.418000",
          "175631.418000",
          "175631.418000",
          "175631.433000",
          "175631.433000",
          "175631.433000",
          "175631.433000",
          "175631.433000",
          "175631.433000",
          "175631.449000",
          "175631.449000",
          "175631.449000",
          "175631.449000",
          "175631.449000",
          "175631.449000",
          "175631.449000",
          "175631.465000",
          "175711.371000",
          "175711.371000",
          "175711.371000",
          "175711.371000",
          "175711.371000",
          "175711.387000",
          "175711.387000",
          "175711.387000",
          "175711.387000",
          "175711.387000",
          "175711.387000",
          "175711.402000",
          "175711.402000",
          "175711.402000",
          "175711.402000",
          "175711.402000",
          "175711.402000",
          "175711.402000",
          "175711.418000",
          "175711.418000",
          "175751.371000",
          "175751.371000",
          "175751.371000",
          "175751.371000",
          "175751.371000",
          "175751.387000",
          "175751.387000",
          "175751.387000",
          "175751.387000",
          "175751.387000",
          "175751.402000",
          "175751.402000",
          "175751.402000",
          "175751.402000",
          "175751.402000",
          "175751.402000",
          "175751.418000",
          "175751.418000",
          "175751.418000",
          "175751.418000",
          "175831.371000",
          "175831.371000",
          "175831.371000",
          "175831.371000",
          "175831.371000",
          "175831.387000",
          "175831.387000",
          "175831.387000",
          "175831.387000",
          "175831.387000",
          "175831.387000",
          "175831.402000",
          "175831.402000",
          "175831.402000",
          "175831.402000",
          "175831.402000",
          "175831.402000",
          "175831.418000",
          "175831.418000",
          "175831.418000",
          "175911.371000",
          "175911.371000",
          "175911.371000",
          "175911.371000",
          "175911.387000",
          "175911.387000",
          "175911.387000",
          "175911.387000",
          "175911.387000",
          "175911.387000",
          "175911.402000",
          "175911.402000",
          "175911.402000",
          "175911.402000",
          "175911.402000",
          "175911.402000",
          "175911.402000",
          "175911.418000",
          "175911.418000",
          "175911.418000",
          "175951.371000",
          "175951.371000",
          "175951.371000",
          "175951.371000",
          "175951.371000",
          "175951.387000",
          "175951.387000",
          "175951.387000",
          "175951.387000",
          "175951.387000",
          "175951.402000",
          "175951.402000",
          "175951.402000",
          "175951.402000",
          "175951.402000",
          "175951.418000",
          "175951.418000",
          "175951.418000",
          "175951.418000",
          "175951.418000",
          "180031.371000",
          "180031.371000",
          "180031.371000",
          "180031.371000",
          "180031.371000",
          "180031.387000",
          "180031.387000",
          "180031.402000",
          "180031.418000",
          "180031.418000",
          "180031.418000",
          "180031.418000",
          "180031.433000",
          "180031.433000",
          "180031.433000",
          "180031.433000",
          "180031.433000",
          "180031.433000",
          "180031.449000",
          "180031.449000",
          "180105.746000",
          "180105.762000",
          "180105.762000",
          "180105.762000",
          "180105.777000",
          "180105.777000",
          "180105.777000",
          "180105.777000",
          "180105.777000",
          "180105.777000",
          "180105.793000",
          "180105.793000",
          "180105.793000",
          "180105.793000",
          "180105.793000",
          "180105.793000",
          "180105.808000",
          "180105.808000"
        ],
        "InstanceCreationTime": [
          "175631.387000",
          "175631.387000",
          "175631.402000",
          "175631.402000",
          "175631.402000",
          "175631.402000",
          "175631.402000",
          "175631.402000",
          "175631.418000",
          "175631.418000",
          "175631.418000",
          "175631.418000",
          "175631.433000",
          "175631.433000",
          "175631.433000",
          "175631.433000",
          "175631.433000",
          "175631.433000",
          "175631.449000",
          "175631.449000",
          "175631.449000",
          "175631.449000",
          "175631.449000",
          "175631.449000",
          "175631.449000",
          "175631.465000",
          "175711.371000",
          "175711.371000",
          "175711.371000",
          "175711.371000",
          "175711.371000",
          "175711.387000",
          "175711.387000",
          "175711.387000",
          "175711.387000",
          "175711.387000",
          "175711.387000",
          "175711.402000",
          "175711.402000",
          "175711.402000",
          "175711.402000",
          "175711.402000",
          "175711.402000",
          "175711.402000",
          "175711.418000",
          "175711.418000",
          "175751.371000",
          "175751.371000",
          "175751.371000",
          "175751.371000",
          "175751.371000",
          "175751.387000",
          "175751.387000",
          "175751.387000",
          "175751.387000",
          "175751.387000",
          "175751.402000",
          "175751.402000",
          "175751.402000",
          "175751.402000",
          "175751.402000",
          "175751.402000",
          "175751.418000",
          "175751.418000",
          "175751.418000",
          "175751.418000",
          "175831.371000",
          "175831.371000",
          "175831.371000",
          "175831.371000",
          "175831.371000",
          "175831.387000",
          "175831.387000",
          "175831.387000",
          "175831.387000",
          "175831.387000",
          "175831.387000",
          "175831.402000",
          "175831.402000",
          "175831.402000",
          "175831.402000",
          "175831.402000",
          "175831.402000",
          "175831.418000",
          "175831.418000",
          "175831.418000",
          "175911.371000",
          "175911.371000",
          "175911.371000",
          "175911.371000",
          "175911.387000",
          "175911.387000",
          "175911.387000",
          "175911.387000",
          "175911.387000",
          "175911.387000",
          "175911.402000",
          "175911.402000",
          "175911.402000",
          "175911.402000",
          "175911.402000",
          "175911.402000",
          "175911.402000",
          "175911.418000",
          "175911.418000",
          "175911.418000",
          "175951.371000",
          "175951.371000",
          "175951.371000",
          "175951.371000",
          "175951.371000",
          "175951.387000",
          "175951.387000",
          "175951.387000",
          "175951.387000",
          "175951.387000",
          "175951.402000",
          "175951.402000",
          "175951.402000",
          "175951.402000",
          "175951.402000",
          "175951.418000",
          "175951.418000",
          "175951.418000",
          "175951.418000",
          "175951.418000",
          "180031.371000",
          "180031.371000",
          "180031.371000",
          "180031.371000",
          "180031.371000",
          "180031.387000",
          "180031.387000",
          "180031.402000",
          "180031.418000",
          "180031.418000",
          "180031.418000",
          "180031.418000",
          "180031.433000",
          "180031.433000",
          "180031.433000",
          "180031.433000",
          "180031.433000",
          "180031.433000",
          "180031.449000",
          "180031.449000",
          "180105.746000",
          "180105.762000",
          "180105.762000",
          "180105.762000",
          "180105.777000",
          "180105.777000",
          "180105.777000",
          "180105.777000",
          "180105.777000",
          "180105.777000",
          "180105.793000",
          "180105.793000",
          "180105.793000",
          "180105.793000",
          "180105.793000",
          "180105.793000",
          "180105.808000",
          "180105.808000"
        ],
        "InstanceNumber": [
          1,
          2,
          3,
          4,
          5,
          6,
          7,
          8,
          9,
          10,
          11,
          12,
          13,
          14,
          15,
          16,
          17,
          18,
          19,
          20,
          21,
          22,
          23,
          24,
          25,
          26,
          27,
          28,
          29,
          30,
          31,
          32,
          33,
          34,
          35,
          36,
          37,
          38,
          39,
          40,
          41,
          42,
          43,
          44,
          45,
          46,
          47,
          48,
          49,
          50,
          51,
          52,
          53,
          54,
          55,
          56,
          57,
          58,
          59,
          60,
          61,
          62,
          63,
          64,
          65,
          66,
          67,
          68,
          69,
          70,
          71,
          72,
          73,
          74,
          75,
          76,
          77,
          78,
          79,
          80,
          81,
          82,
          83,
          84,
          85,
          86,
          87,
          88,
          89,
          90,
          91,
          92,
          93,
          94,
          95,
          96,
          97,
          98,
          99,
          100,
          101,
          102,
          103,
          104,
          105,
          106,
          107,
          108,
          109,
          110,
          111,
          112,
          113,
          114,
          115,
          116,
          117,
          118,
          119,
          120,
          121,
          122,
          123,
          124,
          125,
          126,
          127,
          128,
          129,
          130,
          131,
          132,
          133,
          134,
          135,
          136,
          137,
          138,
          139,
          140,
          141,
          142,
          143,
          144,
          145,
          146,
          147,
          148,
          149,
          150,
          151,
          152,
          153,
          154,
          155,
          156,
          157,
          158,
          159,
          160,
          161,
          162,
          163,
          164
        ],
        "WindowCenter": [
          1230.0,
          1228.0,
          1229.0,
          1228.0,
          1227.0,
          1228.0,
          1229.0,
          1228.0,
          1227.0,
          1225.0,
          1225.0,
          1226.0,
          1226.0,
          1226.0,
          1227.0,
          1229.0,
          1229.0,
          1231.0,
          1230.0,
          1229.0,
          1227.0,
          1227.0,
          1228.0,
          1231.0,
          1232.0,
          1229.0,
          1227.0,
          1225.0,
          1226.0,
          1227.0,
          1228.0,
          1228.0,
          1226.0,
          1226.0,
          1227.0,
          1227.0,
          1225.0,
          1223.0,
          1223.0,
          1224.0,
          1225.0,
          1225.0,
          1225.0,
          1225.0,
          1226.0,
          1226.0,
          1228.0,
          1229.0,
          1228.0,
          1229.0,
          1230.0,
          1231.0,
          1232.0,
          1229.0,
          1228.0,
          1228.0,
          1229.0,
          1231.0,
          1232.0,
          1230.0,
          1229.0,
          1231.0,
          1231.0,
          1231.0,
          1229.0,
          1225.0,
          1225.0,
          1226.0,
          1230.0,
          1229.0,
          1228.0,
          1227.0,
          1228.0,
          1230.0,
          1228.0,
          1229.0,
          1228.0,
          1229.0,
          1232.0,
          1230.0,
          1229.0,
          1228.0,
          1228.0,
          1229.0,
          1230.0,
          1231.0,
          1229.0,
          1230.0,
          1230.0,
          1232.0,
          1230.0,
          1232.0,
          1233.0,
          1232.0,
          1233.0,
          1231.0,
          1231.0,
          1232.0,
          1231.0,
          1231.0,
          1230.0,
          1228.0,
          1228.0,
          1228.0,
          1227.0,
          1225.0,
          1226.0,
          1227.0,
          1225.0,
          1225.0,
          1226.0,
          1228.0,
          1228.0,
          1228.0,
          1229.0,
          1227.0,
          1229.0,
          1232.0,
          1230.0,
          1231.0,
          1228.0,
          1227.0,
          1229.0,
          1232.0,
          1233.0,
          1232.0,
          1231.0,
          1234.0,
          1234.0,
          1233.0,
          1230.0,
          1230.0,
          1230.0,
          1231.0,
          1231.0,
          1233.0,
          1233.0,
          1233.0,
          1234.0,
          1233.0,
          1232.0,
          1231.0,
          1229.0,
          1229.0,
          1228.0,
          1228.0,
          1228.0,
          1230.0,
          1231.0,
          1230.0,
          1230.0,
          1231.0,
          1231.0,
          1231.0,
          1233.0,
          1235.0,
          1235.0,
          1235.0,
          1234.0,
          1233.0,
          1233.0,
          1232.0,
          1234.0,
          1235.0
        ],
        "WindowWidth": [
          2875.0,
          2875.0,
          2875.0,
          2871.0,
          2871.0,
          2873.0,
          2874.0,
          2873.0,
          2868.0,
          2865.0,
          2867.0,
          2871.0,
          2867.0,
          2869.0,
          2871.0,
          2877.0,
          2879.0,
          2880.0,
          2876.0,
          2874.0,
          2871.0,
          2871.0,
          2873.0,
          2881.0,
          2884.0,
          2876.0,
          2870.0,
          2868.0,
          2867.0,
          2870.0,
          2874.0,
          2873.0,
          2867.0,
          2869.0,
          2871.0,
          2872.0,
          2868.0,
          2864.0,
          2864.0,
          2865.0,
          2867.0,
          2867.0,
          2867.0,
          2869.0,
          2869.0,
          2870.0,
          2875.0,
          2878.0,
          2876.0,
          2877.0,
          2882.0,
          2884.0,
          2882.0,
          2875.0,
          2872.0,
          2872.0,
          2877.0,
          2881.0,
          2881.0,
          2878.0,
          2877.0,
          2881.0,
          2883.0,
          2882.0,
          2876.0,
          2868.0,
          2870.0,
          2872.0,
          2877.0,
          2877.0,
          2873.0,
          2872.0,
          2874.0,
          2877.0,
          2875.0,
          2875.0,
          2875.0,
          2879.0,
          2883.0,
          2879.0,
          2875.0,
