{
  "aor": 0.003672621951219512,
  "aqi": 0.0038756076829268293,
  "bids_meta": {
    "AcquisitionMatrixPE": 96,
    "AcquisitionNumber": 1,
    "AcquisitionTime": "16:38:3.777500",
    "BandwidthPerPixelPhaseEncode": 52.083,
    "BaseResolution": 96,
    "BodyPartExamined": "HEAD",
    "ConversionSoftware": "dcm2niix",
    "ConversionSoftwareVersion": "v1.0.20180622 GCC6.3.0",
    "DerivedVendorReportedEchoSpacing": 0.000600004,
    "DeviceSerialNumber": "18926",
    "DwellTime": 2.6e-06,
    "EchoTime": 0.025,
    "EffectiveEchoSpacing": 0.000200001,
    "FlipAngle": 50,
    "ImageOrientationPatientDICOM": [
      0.999992,
      0.000811021,
      0.0040232,
      2.21017e-10,
      0.98028,
      -0.197611
    ],
    "ImageType": [
      "ORIGINAL",
      "PRIMARY",
      "M",
      "ND",
      "ECHO",
      "00",
      "MOSAIC"
    ],
    "InPlanePhaseEncodingDirectionDICOM": "ROW",
    "InstitutionName": "NIMH",
    "InstitutionalDepartmentName": "Department",
    "MRAcquisitionType": "2D",
    "MagneticFieldStrength": 6.98,
    "Manufacturer": "Siemens",
    "ManufacturersModelName": "Investigational_Device_7T",
    "Modality": "MR",
    "ParallelReductionFactorInPlane": 3,
    "PartialFourier": 1,
    "PatientPosition": "HFS",
    "PercentPhaseFOV": 100,
    "PhaseEncodingDirection": "i",
    "PhaseEncodingSteps": 94,
    "PhaseResolution": 1,
    "PixelBandwidth": 2003,
    "ProcedureStepDescription": "MRI_Procedure_Limited",
    "ProtocolName": "NIH_EPI_2.0iso_TR2_Run03",
    "PulseSequenceDetails": "%CustomerSeq%_inati_nih_epi",
    "ReceiveCoilName": "32Ch_Head_7T",
    "ReconMatrixPE": 96,
    "RepetitionTime": 2,
    "SAR": 0.0696005,
    "ScanningSequence": "EP",
    "SequenceName": "epfid2d1_96",
    "SequenceVariant": "SK",
    "SeriesDescription": "NIH_EPI_2.0iso_TR2_Run03",
    "SeriesNumber": 7,
    "ShimSetting": [
      -54,
      274,
      831,
      868,
      -231,
      975,
      388,
      -502
    ],
    "SliceThickness": 2,
    "SliceTiming": [
      1.005,
      0,
      1.0425,
      0.0375,
      1.08,
      0.075,
      1.1175,
      0.1125,
      1.1525,
      0.15,
      1.19,
      0.1875,
      1.2275,
      0.225,
      1.265,
      0.26,
      1.3025,
      0.2975,
      1.34,
      0.335,
      1.3775,
      0.3725,
      1.4125,
      0.41,
      1.45,
      0.4475,
      1.4875,
      0.485,
      1.525,
      0.5225,
      1.5625,
      0.5575,
      1.6,
      0.595,
      1.6375,
      0.6325,
      1.675,
      0.67,
      1.71,
      0.7075,
      1.7475,
      0.745,
      1.785,
      0.7825,
      1.8225,
      0.82,
      1.86,
      0.855,
      1.8975,
      0.8925,
      1.935,
      0.93,
      1.9725,
      0.9675
    ],
    "SoftwareVersions": "syngo_MR_B17",
    "SpacingBetweenSlices": 2,
    "StationName": "FMRIFD7T",
    "TaskName": "HalfFovNoTask",
    "TotalReadoutTime": 0.0190001,
    "TxRefAmp": 321,
    "dataset": "ds001555",
    "dcmmeta_affine": [
      [
        -1.9999831914901733,
        4.4203418703148145e-10,
        0.008208253420889378,
        95.76705169677734
      ],
      [
        -0.0016220425022765994,
        1.960560917854309,
        -0.3952191174030304,
        -55.294212341308594
      ],
      [
        0.008046390488743782,
        0.39522242546081543,
        1.960544466972351,
        -48.509117126464844
      ],
      [
        0.0,
        0.0,
        0.0,
        1.0
      ]
    ],
    "dcmmeta_reorient_transform": [
      [
        0.0,
        -1.0,
        0.0,
        95.0
      ],
      [
        1.0,
        0.0,
        0.0,
        0.0
      ],
      [
        0.0,
        0.0,
        1.0,
        0.0
      ],
      [
        0.0,
        0.0,
        0.0,
        1.0
      ]
    ],
    "dcmmeta_shape": [
      96,
      96,
      54,
      164
    ],
    "dcmmeta_slice_dim": 2,
    "dcmmeta_version": 0.6,
    "global": {
      "const": {
        "AcquisitionMatrix": [
          0,
          96,
          96,
          0
        ],
        "Allergies": "No Known Allergies",
        "AngioFlag": "N",
        "BitsAllocated": 16,
        "BitsStored": 12,
        "BodyPartExamined": "HEAD",
        "Columns": 768,
        "EchoNumbers": 1,
        "EchoTime": 25.0,
        "EchoTrainLength": 1,
        "FlipAngle": 50.0,
        "HighBit": 11,
        "ImageOrientationPatient": [
          0.99999157803651,
          0.00081102126218,
          0.0040231953173,
          2.210171e-10,
          0.9802804733507,
          -0.1976112182224
        ],
        "ImagePositionPatient": [
          -767.7613927826,
          -790.25256366957,
          119.1281658306
        ],
        "ImageType": [
          "ORIGINAL",
          "PRIMARY",
          "M",
          "ND",
          "ECHO_00",
          "MOSAIC"
        ],
        "ImagedNucleus": "1H",
        "ImagingFrequency": 297.205028,
        "InPlanePhaseEncodingDirection": "ROW",
        "LargestImagePixelValue": 4095,
        "MRAcquisitionType": "2D",
        "MagneticFieldStrength": 6.98,
        "Manufacturer": "SIEMENS",
        "ManufacturerModelName": "Investigational_Device_7T",
        "Modality": "MR",
        "NumberOfAverages": 1.0,
        "NumberOfPhaseEncodingSteps": 94,
        "PercentPhaseFieldOfView": 100.0,
        "PercentSampling": 100.0,
        "PerformedProcedureStepStartTime": "160630.465000",
        "PhotometricInterpretation": "MONOCHROME2",
        "PixelBandwidth": 2003.0,
        "PixelRepresentation": 0,
        "PixelSpacing": [
          2.0,
          2.0
        ],
        "PositionReferenceIndicator": "",
        "ProcedureCodeSequence": [
          {
            "CodeMeaning": "MRI Procedure Limited",
            "CodeValue": "MI01491",
            "CodingSchemeDesignator": "USA Standard",
            "ContextIdentifier": "4000133397"
          }
        ],
        "ProtocolName": "NIH_EPI_2.0iso_TR2_Run03",
        "ReferencedStudySequence": [
          {
            "ReferencedSOPClassUID": "1.2.840.10008.3.1.2.3.1",
            "ReferencedSOPInstanceUID": "1.2.840.113564.9.1.2787814059.53.2.5000099247"
          }
        ],
        "RepetitionTime": 2000.0,
        "RequestedProcedureCodeSequence": [
          {
            "CodeMeaning": "MRI Procedure Limited",
            "CodeValue": "MI01491",
            "CodingSchemeDesignator": "USA Standard",
            "ContextIdentifier": "4000133397"
          }
        ],
        "RequestingService": "NIMH Molecular Imaging Branch",
        "Rows": 768,
        "SAR": 0.06960045299858,
        "SamplesPerPixel": 1,
        "ScanningSequence": "EP",
        "SequenceName": "epfid2d1_96",
        "SequenceVariant": "SK",
        "SeriesDescription": "NIH_EPI_2.0iso_TR2_Run03",
        "SeriesNumber": 7,
        "SliceLocation": -36.232435293683,
        "SliceThickness": 2.0,
        "SmallestImagePixelValue": 0,
        "SoftwareVersions": "syngo MR B17",
        "SpacingBetweenSlices": 2.0000000022588,
        "TransmitCoilName": "32Ch_Head_7T",
        "VariableFlipAngleFlag": "N",
        "WindowCenterWidthExplanation": "Algo1",
        "dBdt": 0.0
      },
      "slices": {}
    },
    "modality": "bold",
    "run_id": 4,
    "session_id": "12",
    "subject_id": "001",
    "task_id": "HalfFovNoTask",
    "time": {
      "samples": {
        "AcquisitionNumber": [
          1,
          2,
          3,
          4,
          5,
          6,
          7,
          8,
          9,
          10,
          11,
          12,
          13,
          14,
          15,
          16,
          17,
          18,
          19,
          20,
          21,
          22,
          23,
          24,
          25,
          26,
          27,
          28,
          29,
          30,
          31,
          32,
          33,
          34,
          35,
          36,
          37,
          38,
          39,
          40,
          41,
          42,
          43,
          44,
          45,
          46,
          47,
          48,
          49,
          50,
          51,
          52,
          53,
          54,
          55,
          56,
          57,
          58,
          59,
          60,
          61,
          62,
          63,
          64,
          65,
          66,
          67,
          68,
          69,
          70,
          71,
          72,
          73,
          74,
          75,
          76,
          77,
          78,
          79,
          80,
          81,
          82,
          83,
          84,
          85,
          86,
          87,
          88,
          89,
          90,
          91,
          92,
          93,
          94,
          95,
          96,
          97,
          98,
          99,
          100,
          101,
          102,
          103,
          104,
          105,
          106,
          107,
          108,
          109,
          110,
          111,
          112,
          113,
          114,
          115,
          116,
          117,
          118,
          119,
          120,
          121,
          122,
          123,
          124,
          125,
          126,
          127,
          128,
          129,
          130,
          131,
          132,
          133,
          134,
          135,
          136,
          137,
          138,
          139,
          140,
          141,
          142,
          143,
          144,
          145,
          146,
          147,
          148,
          149,
          150,
          151,
          152,
          153,
          154,
          155,
          156,
          157,
          158,
          159,
          160,
          161,
          162,
          163,
          164
        ],
        "AcquisitionTime": [
          "163803.777500",
          "163807.792500",
          "163809.802500",
          "163811.810000",
          "163813.817500",
          "163815.825000",
          "163817.832500",
          "163819.842500",
          "163821.850000",
          "163823.857500",
          "163825.865000",
          "163827.872500",
          "163829.882500",
          "163831.890000",
          "163833.897500",
          "163835.905000",
          "163837.915000",
          "163839.922500",
          "163841.930000",
          "163843.937500",
          "163845.945000",
          "163847.955000",
          "163849.962500",
          "163851.970000",
          "163853.977500",
          "163855.985000",
          "163857.995000",
          "163900.002500",
          "163902.010000",
          "163904.017500",
          "163906.025000",
          "163908.035000",
          "163910.042500",
          "163912.050000",
          "163914.057500",
          "163916.067500",
          "163918.075000",
          "163920.082500",
          "163922.090000",
          "163924.097500",
          "163926.107500",
          "163928.115000",
          "163930.122500",
          "163932.130000",
          "163934.137500",
          "163936.147500",
          "163938.155000",
          "163940.162500",
          "163942.170000",
          "163944.180000",
          "163946.187500",
          "163948.195000",
          "163950.202500",
          "163952.210000",
          "163954.220000",
          "163956.227500",
          "163958.235000",
          "164000.242500",
          "164002.250000",
          "164004.260000",
          "164006.267500",
          "164008.275000",
          "164010.282500",
          "164012.292500",
          "164014.300000",
          "164016.307500",
          "164018.315000",
          "164020.322500",
          "164022.332500",
          "164024.340000",
          "164026.347500",
          "164028.355000",
          "164030.362500",
          "164032.372500",
          "164034.380000",
          "164036.387500",
          "164038.395000",
          "164040.402500",
          "164042.412500",
          "164044.420000",
          "164046.427500",
          "164048.435000",
          "164050.445000",
          "164052.452500",
          "164054.460000",
          "164056.467500",
          "164058.475000",
          "164100.485000",
          "164102.492500",
          "164104.500000",
          "164106.507500",
          "164108.515000",
          "164110.525000",
          "164112.532500",
          "164114.540000",
          "164116.547500",
          "164118.557500",
          "164120.565000",
          "164122.572500",
          "164124.580000",
          "164126.587500",
          "164128.597500",
          "164130.605000",
          "164132.612500",
          "164134.620000",
          "164136.627500",
          "164138.637500",
          "164140.645000",
          "164142.652500",
          "164144.660000",
          "164146.670000",
          "164148.677500",
          "164150.685000",
          "164152.692500",
          "164154.700000",
          "164156.710000",
          "164158.717500",
          "164200.725000",
          "164202.732500",
          "164204.740000",
          "164206.750000",
          "164208.757500",
          "164210.765000",
          "164212.772500",
          "164214.780000",
          "164216.790000",
          "164218.797500",
          "164220.805000",
          "164222.812500",
          "164224.822500",
          "164226.830000",
          "164228.837500",
          "164230.845000",
          "164232.852500",
          "164234.862500",
          "164236.870000",
          "164238.877500",
          "164240.885000",
          "164242.892500",
          "164244.902500",
          "164246.910000",
          "164248.917500",
          "164250.925000",
          "164252.935000",
          "164254.942500",
          "164256.950000",
          "164258.957500",
          "164300.965000",
          "164302.975000",
          "164304.982500",
          "164306.990000",
          "164308.997500",
          "164311.005000",
          "164313.015000",
          "164315.022500",
          "164317.030000",
          "164319.037500",
          "164321.047500",
          "164323.055000",
          "164325.062500",
          "164327.070000",
          "164329.077500",
          "164331.087500",
          "164333.095000"
        ],
        "ContentTime": [
          "163856.746000",
          "163856.746000",
          "163856.746000",
          "163856.746000",
          "163856.746000",
          "163856.777000",
          "163856.777000",
          "163856.777000",
          "163856.793000",
          "163856.793000",
          "163856.793000",
          "163856.793000",
          "163856.793000",
          "163856.793000",
          "163856.793000",
          "163856.808000",
          "163856.808000",
          "163856.808000",
          "163856.808000",
          "163856.808000",
          "163856.808000",
          "163856.824000",
          "163856.824000",
          "163856.824000",
          "163856.824000",
          "163936.730000",
          "163936.730000",
          "163936.730000",
          "163936.746000",
          "163936.746000",
          "163936.746000",
          "163936.746000",
          "163936.746000",
          "163936.746000",
          "163936.746000",
          "163936.762000",
          "163936.762000",
          "163936.762000",
          "163936.762000",
          "163936.762000",
          "163936.762000",
          "163936.762000",
          "163936.777000",
          "163936.777000",
          "163936.777000",
          "164016.730000",
          "164016.746000",
          "164016.746000",
          "164016.762000",
          "164016.762000",
          "164016.762000",
          "164016.762000",
          "164016.762000",
          "164016.762000",
          "164016.777000",
          "164016.777000",
          "164016.777000",
          "164016.777000",
          "164016.777000",
          "164016.777000",
          "164016.777000",
          "164016.793000",
          "164016.793000",
          "164016.793000",
          "164016.793000",
          "164056.730000",
          "164056.730000",
          "164056.730000",
          "164056.730000",
          "164056.730000",
          "164056.746000",
          "164056.746000",
          "164056.746000",
          "164056.746000",
          "164056.746000",
          "164056.746000",
          "164056.762000",
          "164056.762000",
          "164056.762000",
          "164056.762000",
          "164056.762000",
          "164056.762000",
          "164056.777000",
          "164056.777000",
          "164056.793000",
          "164136.730000",
          "164136.730000",
          "164136.730000",
          "164136.730000",
          "164136.730000",
          "164136.746000",
          "164136.746000",
          "164136.746000",
          "164136.746000",
          "164136.746000",
          "164136.746000",
          "164136.762000",
          "164136.762000",
          "164136.762000",
          "164136.762000",
          "164136.762000",
          "164136.777000",
          "164136.777000",
          "164136.777000",
          "164136.777000",
          "164216.730000",
          "164216.730000",
          "164216.746000",
          "164216.746000",
          "164216.746000",
          "164216.746000",
          "164216.746000",
          "164216.746000",
          "164216.762000",
          "164216.762000",
          "164216.762000",
          "164216.762000",
          "164216.762000",
          "164216.762000",
          "164216.762000",
          "164216.777000",
          "164216.777000",
          "164216.777000",
          "164216.777000",
          "164216.777000",
          "164256.730000",
          "164256.730000",
          "164256.730000",
          "164256.730000",
          "164256.730000",
          "164256.746000",
          "164256.746000",
          "164256.746000",
          "164256.746000",
          "164256.762000",
          "164256.762000",
          "164256.762000",
          "164256.762000",
          "164256.762000",
          "164256.762000",
          "164256.777000",
          "164256.777000",
          "164256.777000",
          "164256.777000",
          "164256.777000",
          "164316.730000",
          "164316.730000",
          "164316.730000",
          "164316.730000",
          "164316.730000",
          "164316.746000",
          "164316.746000",
          "164316.746000",
          "164316.746000",
          "164316.746000",
          "164333.387000",
          "164333.387000",
          "164333.387000",
          "164333.387000",
          "164333.387000",
          "164333.387000",
          "164333.387000",
          "164333.402000",
          "164333.402000"
        ],
        "InstanceCreationTime": [
          "163856.746000",
          "163856.746000",
          "163856.746000",
          "163856.746000",
          "163856.746000",
          "163856.777000",
          "163856.777000",
          "163856.777000",
          "163856.793000",
          "163856.793000",
          "163856.793000",
          "163856.793000",
          "163856.793000",
          "163856.793000",
          "163856.793000",
          "163856.808000",
          "163856.808000",
          "163856.808000",
          "163856.808000",
          "163856.808000",
          "163856.808000",
          "163856.824000",
          "163856.824000",
          "163856.824000",
          "163856.824000",
          "163936.730000",
          "163936.730000",
          "163936.730000",
          "163936.746000",
          "163936.746000",
          "163936.746000",
          "163936.746000",
          "163936.746000",
          "163936.746000",
          "163936.746000",
          "163936.762000",
          "163936.762000",
          "163936.762000",
          "163936.762000",
          "163936.762000",
          "163936.762000",
          "163936.762000",
          "163936.777000",
          "163936.777000",
          "163936.777000",
          "164016.730000",
          "164016.746000",
          "164016.746000",
          "164016.762000",
          "164016.762000",
          "164016.762000",
          "164016.762000",
          "164016.762000",
          "164016.762000",
          "164016.777000",
          "164016.777000",
          "164016.777000",
          "164016.777000",
          "164016.777000",
          "164016.777000",
          "164016.777000",
          "164016.793000",
          "164016.793000",
          "164016.793000",
          "164016.793000",
          "164056.730000",
          "164056.730000",
          "164056.730000",
          "164056.730000",
          "164056.730000",
          "164056.746000",
          "164056.746000",
          "164056.746000",
          "164056.746000",
          "164056.746000",
          "164056.746000",
          "164056.762000",
          "164056.762000",
          "164056.762000",
          "164056.762000",
          "164056.762000",
          "164056.762000",
          "164056.777000",
          "164056.777000",
          "164056.793000",
          "164136.730000",
          "164136.730000",
          "164136.730000",
          "164136.730000",
          "164136.730000",
          "164136.746000",
          "164136.746000",
          "164136.746000",
          "164136.746000",
          "164136.746000",
          "164136.746000",
          "164136.762000",
          "164136.762000",
          "164136.762000",
          "164136.762000",
          "164136.762000",
          "164136.777000",
          "164136.777000",
          "164136.777000",
          "164136.777000",
          "164216.730000",
          "164216.730000",
          "164216.746000",
          "164216.746000",
          "164216.746000",
          "164216.746000",
          "164216.746000",
          "164216.746000",
          "164216.762000",
          "164216.762000",
          "164216.762000",
          "164216.762000",
          "164216.762000",
          "164216.762000",
          "164216.762000",
          "164216.777000",
          "164216.777000",
          "164216.777000",
          "164216.777000",
          "164216.777000",
          "164256.730000",
          "164256.730000",
          "164256.730000",
          "164256.730000",
          "164256.730000",
          "164256.746000",
          "164256.746000",
          "164256.746000",
          "164256.746000",
          "164256.762000",
          "164256.762000",
          "164256.762000",
          "164256.762000",
          "164256.762000",
          "164256.762000",
          "164256.777000",
          "164256.777000",
          "164256.777000",
          "164256.777000",
          "164256.777000",
          "164316.730000",
          "164316.730000",
          "164316.730000",
          "164316.730000",
          "164316.730000",
          "164316.746000",
          "164316.746000",
          "164316.746000",
          "164316.746000",
          "164316.746000",
          "164333.387000",
          "164333.387000",
          "164333.387000",
          "164333.387000",
          "164333.387000",
          "164333.387000",
          "164333.387000",
          "164333.402000",
          "164333.402000"
        ],
        "InstanceNumber": [
          1,
          2,
          3,
          4,
          5,
          6,
          7,
          8,
          9,
          10,
          11,
          12,
          13,
          14,
          15,
          16,
          17,
          18,
          19,
          20,
          21,
          22,
          23,
          24,
          25,
          26,
          27,
          28,
          29,
          30,
          31,
          32,
          33,
          34,
          35,
          36,
          37,
          38,
          39,
          40,
          41,
          42,
          43,
          44,
          45,
          46,
          47,
          48,
          49,
          50,
          51,
          52,
          53,
          54,
          55,
          56,
          57,
          58,
          59,
          60,
          61,
          62,
          63,
          64,
          65,
          66,
          67,
          68,
          69,
          70,
          71,
          72,
          73,
          74,
          75,
          76,
          77,
          78,
          79,
          80,
          81,
          82,
          83,
          84,
          85,
          86,
          87,
          88,
          89,
          90,
          91,
          92,
          93,
          94,
          95,
          96,
          97,
          98,
          99,
          100,
          101,
          102,
          103,
          104,
          105,
          106,
          107,
          108,
          109,
          110,
          111,
          112,
          113,
          114,
          115,
          116,
          117,
          118,
          119,
          120,
          121,
          122,
          123,
          124,
          125,
          126,
          127,
          128,
          129,
          130,
          131,
          132,
          133,
          134,
          135,
          136,
          137,
          138,
          139,
          140,
          141,
          142,
          143,
          144,
          145,
          146,
          147,
          148,
          149,
          150,
          151,
          152,
          153,
          154,
          155,
          156,
          157,
          158,
          159,
          160,
          161,
          162,
          163,
          164
        ],
        "WindowCenter": [
          1225.0,
          1225.0,
          1226.0,
          1226.0,
          1226.0,
          1227.0,
          1227.0,
          1225.0,
          1226.0,
          1227.0,
          1226.0,
          1223.0,
          1225.0,
          1228.0,
          1227.0,
          1228.0,
          1227.0,
          1226.0,
          1226.0,
          1226.0,
          1225.0,
          1223.0,
          1221.0,
          1223.0,
          1225.0,
          1226.0,
          1225.0,
          1223.0,
          1224.0,
          1224.0,
          1224.0,
          1224.0,
          1225.0,
          1224.0,
          1222.0,
          1222.0,
          1223.0,
          1224.0,
          1225.0,
          1223.0,
          1221.0,
          1222.0,
          1223.0,
          1224.0,
          1224.0,
          1223.0,
          1226.0,
          1227.0,
          1227.0,
          1225.0,
          1224.0,
          1224.0,
          1225.0,
          1224.0,
          1224.0,
          1224.0,
          1223.0,
          1223.0,
          1224.0,
          1223.0,
          1223.0,
          1223.0,
          1221.0,
          1221.0,
          1222.0,
          1224.0,
          1226.0,
          1224.0,
          1223.0,
          1225.0,
          1226.0,
          1227.0,
          1226.0,
          1225.0,
          1225.0,
          1226.0,
          1227.0,
          1225.0,
          1226.0,
          1226.0,
          1227.0,
          1228.0,
          1228.0,
          1227.0,
          1226.0,
          1225.0,
          1225.0,
          1226.0,
          1226.0,
          1226.0,
          1226.0,
          1226.0,
          1225.0,
          1223.0,
          1222.0,
          1222.0,
          1222.0,
          1223.0,
          1222.0,
          1224.0,
          1227.0,
          1224.0,
          1223.0,
          1222.0,
          1220.0,
          1217.0,
          1216.0,
          1220.0,
          1225.0,
          1228.0,
          1227.0,
          1223.0,
          1223.0,
          1224.0,
          1226.0,
          1227.0,
          1227.0,
          1225.0,
          1225.0,
          1226.0,
          1226.0,
          1226.0,
          1226.0,
          1225.0,
          1225.0,
          1226.0,
          1226.0,
          1227.0,
          1228.0,
          1228.0,
          1228.0,
          1228.0,
          1229.0,
          1228.0,
          1228.0,
          1228.0,
          1227.0,
          1227.0,
          1227.0,
          1227.0,
          1226.0,
          1226.0,
          1225.0,
          1226.0,
          1228.0,
          1226.0,
          1226.0,
          1227.0,
          1228.0,
          1227.0,
          1226.0,
          1226.0,
          1226.0,
          1226.0,
          1225.0,
          1226.0,
          1226.0,
          1226.0,
          1227.0,
          1226.0,
          1227.0,
          1227.0,
          1226.0,
          1227.0
        ],
        "WindowWidth": [
          2879.0,
          2880.0,
          2882.0,
          2882.0,
          2886.0,
          2886.0,
          2887.0,
          2881.0,
          2884.0,
          2885.0,
          2881.0,
          2875.0,
          2880.0,
          2889.0,
          2886.0,
          2883.0,
          2886.0,
          2884.0,
          2881.0,
          2883.0,
          2880.0,
          2876.0,
          2872.0,
          2876.0,
          2882.0,
          2881.0,
          2879.0,
          2876.0,
          2876.0,
          2878.0,
          2877.0,
          2877.0,
          2879.0,
          2876.0,
          2873.0,
          2872.0,
          2878.0,
          2879.0,
          2878.0,
          2873.0,
          2871.0,
          2875.0,
          2876.0,
          2878.0,
          2876.0,
          2877.0,
          2882.0,
          2885.0,
          2881.0,
          2875.0,
          2873.0,
          2877.0,
          2878.0,
          2879.0,
          2877.0,
          2877.0,
          2875.0,
          2874.0,
          2877.0,
          2876.0,
          2874.0,
          2873.0,
          2871.0,
          2871.0,
          2873.0,
          2878.0,
          2878.0,
          2875.0,
          2875.0,
          2879.0,
          2884.0,
          2885.0,
          2883.0,
          2882.0,
          2882.0,
          2883.0,
          2883.0,
          2882.0,
          2884.0,
          2885.0,
          2886.0,
          2887.0,
