{
  "aor": 0.0011795679012345682,
  "aqi": 0.0040797146296296305,
  "bids_meta": {
    "AcquisitionMatrixPE": 96,
    "AcquisitionNumber": 1,
    "AcquisitionTime": "17:06:3.322500",
    "BandwidthPerPixelPhaseEncode": 52.083,
    "BaseResolution": 96,
    "BodyPartExamined": "HEAD",
    "ConversionSoftware": "dcm2niix",
    "ConversionSoftwareVersion": "v1.0.20180622 GCC6.3.0",
    "DerivedVendorReportedEchoSpacing": 0.000600004,
    "DeviceSerialNumber": "18926",
    "DwellTime": 2.6e-06,
    "EchoTime": 0.025,
    "EffectiveEchoSpacing": 0.000200001,
    "FlipAngle": 50,
    "ImageOrientationPatientDICOM": [
      0.999992,
      0.000811021,
      0.0040232,
      2.21017e-10,
      0.98028,
      -0.197611
    ],
    "ImageType": [
      "ORIGINAL",
      "PRIMARY",
      "M",
      "ND",
      "ECHO",
      "00",
      "MOSAIC"
    ],
    "InPlanePhaseEncodingDirectionDICOM": "ROW",
    "InstitutionName": "NIMH",
    "InstitutionalDepartmentName": "Department",
    "MRAcquisitionType": "2D",
    "MagneticFieldStrength": 6.98,
    "Manufacturer": "Siemens",
    "ManufacturersModelName": "Investigational_Device_7T",
    "Modality": "MR",
    "ParallelReductionFactorInPlane": 3,
    "PartialFourier": 1,
    "PatientPosition": "HFS",
    "PercentPhaseFOV": 100,
    "PhaseEncodingDirection": "i",
    "PhaseEncodingSteps": 94,
    "PhaseResolution": 1,
    "PixelBandwidth": 2003,
    "ProcedureStepDescription": "MRI_Procedure_Limited",
    "ProtocolName": "NIH_EPI_2.0iso_TR2_Run07",
    "PulseSequenceDetails": "%CustomerSeq%_inati_nih_epi",
    "ReceiveCoilName": "32Ch_Head_7T",
    "ReconMatrixPE": 96,
    "RepetitionTime": 2,
    "SAR": 0.0696005,
    "ScanningSequence": "EP",
    "SequenceName": "epfid2d1_96",
    "SequenceVariant": "SK",
    "SeriesDescription": "NIH_EPI_2.0iso_TR2_Run07",
    "SeriesNumber": 11,
    "ShimSetting": [
      -54,
      274,
      831,
      868,
      -231,
      975,
      388,
      -502
    ],
    "SliceThickness": 2,
    "SliceTiming": [
      1.005,
      0,
      1.0425,
      0.0375,
      1.08,
      0.075,
      1.1175,
      0.1125,
      1.1525,
      0.15,
      1.19,
      0.1875,
      1.2275,
      0.225,
      1.265,
      0.2625,
      1.3025,
      0.2975,
      1.34,
      0.335,
      1.3775,
      0.3725,
      1.415,
      0.41,
      1.45,
      0.4475,
      1.4875,
      0.485,
      1.525,
      0.5225,
      1.5625,
      0.56,
      1.6,
      0.595,
      1.6375,
      0.6325,
      1.675,
      0.67,
      1.7125,
      0.7075,
      1.7475,
      0.745,
      1.785,
      0.7825,
      1.8225,
      0.82,
      1.86,
      0.855,
      1.8975,
      0.8925,
      1.935,
      0.93,
      1.9725,
      0.9675
    ],
    "SoftwareVersions": "syngo_MR_B17",
    "SpacingBetweenSlices": 2,
    "StationName": "FMRIFD7T",
    "TaskName": "HalfFovNoTask",
    "TotalReadoutTime": 0.0190001,
    "TxRefAmp": 321,
    "dataset": "ds001555",
    "dcmmeta_affine": [
      [
        -1.9999831914901733,
        4.4203418703148145e-10,
        0.008208253420889378,
        95.76705169677734
      ],
      [
        -0.0016220425022765994,
        1.960560917854309,
        -0.3952191174030304,
        -55.294212341308594
      ],
      [
        0.008046390488743782,
        0.39522242546081543,
        1.960544466972351,
        -48.509117126464844
      ],
      [
        0.0,
        0.0,
        0.0,
        1.0
      ]
    ],
    "dcmmeta_reorient_transform": [
      [
        0.0,
        -1.0,
        0.0,
        95.0
      ],
      [
        1.0,
        0.0,
        0.0,
        0.0
      ],
      [
        0.0,
        0.0,
        1.0,
        0.0
      ],
      [
        0.0,
        0.0,
        0.0,
        1.0
      ]
    ],
    "dcmmeta_shape": [
      96,
      96,
      54,
      164
    ],
    "dcmmeta_slice_dim": 2,
    "dcmmeta_version": 0.6,
    "global": {
      "const": {
        "AcquisitionMatrix": [
          0,
          96,
          96,
          0
        ],
        "Allergies": "No Known Allergies",
        "AngioFlag": "N",
        "BitsAllocated": 16,
        "BitsStored": 12,
        "BodyPartExamined": "HEAD",
        "Columns": 768,
        "EchoNumbers": 1,
        "EchoTime": 25.0,
        "EchoTrainLength": 1,
        "FlipAngle": 50.0,
        "HighBit": 11,
        "ImageOrientationPatient": [
          0.99999157803651,
          0.00081102126218,
          0.0040231953173,
          2.210171e-10,
          0.9802804733507,
          -0.1976112182224
        ],
        "ImagePositionPatient": [
          -767.7613927826,
          -790.25256366957,
          119.1281658306
        ],
        "ImageType": [
          "ORIGINAL",
          "PRIMARY",
          "M",
          "ND",
          "ECHO_00",
          "MOSAIC"
        ],
        "ImagedNucleus": "1H",
        "ImagingFrequency": 297.205055,
        "InPlanePhaseEncodingDirection": "ROW",
        "LargestImagePixelValue": 4095,
        "MRAcquisitionType": "2D",
        "MagneticFieldStrength": 6.98,
        "Manufacturer": "SIEMENS",
        "ManufacturerModelName": "Investigational_Device_7T",
        "Modality": "MR",
        "NumberOfAverages": 1.0,
        "NumberOfPhaseEncodingSteps": 94,
        "PercentPhaseFieldOfView": 100.0,
        "PercentSampling": 100.0,
        "PerformedProcedureStepStartTime": "160630.465000",
        "PhotometricInterpretation": "MONOCHROME2",
        "PixelBandwidth": 2003.0,
        "PixelRepresentation": 0,
        "PixelSpacing": [
          2.0,
          2.0
        ],
        "PositionReferenceIndicator": "",
        "ProcedureCodeSequence": [
          {
            "CodeMeaning": "MRI Procedure Limited",
            "CodeValue": "MI01491",
            "CodingSchemeDesignator": "USA Standard",
            "ContextIdentifier": "4000133397"
          }
        ],
        "ProtocolName": "NIH_EPI_2.0iso_TR2_Run07",
        "ReferencedStudySequence": [
          {
            "ReferencedSOPClassUID": "1.2.840.10008.3.1.2.3.1",
            "ReferencedSOPInstanceUID": "1.2.840.113564.9.1.2787814059.53.2.5000099247"
          }
        ],
        "RepetitionTime": 2000.0,
        "RequestedProcedureCodeSequence": [
          {
            "CodeMeaning": "MRI Procedure Limited",
            "CodeValue": "MI01491",
            "CodingSchemeDesignator": "USA Standard",
            "ContextIdentifier": "4000133397"
          }
        ],
        "RequestingService": "NIMH Molecular Imaging Branch",
        "Rows": 768,
        "SAR": 0.06960045299858,
        "SamplesPerPixel": 1,
        "ScanningSequence": "EP",
        "SequenceName": "epfid2d1_96",
        "SequenceVariant": "SK",
        "SeriesDescription": "NIH_EPI_2.0iso_TR2_Run07",
        "SeriesNumber": 11,
        "SliceLocation": -36.232435293683,
        "SliceThickness": 2.0,
        "SmallestImagePixelValue": 0,
        "SoftwareVersions": "syngo MR B17",
        "SpacingBetweenSlices": 2.0000000022588,
        "TransmitCoilName": "32Ch_Head_7T",
        "VariableFlipAngleFlag": "N",
        "WindowCenterWidthExplanation": "Algo1",
        "dBdt": 0.0
      },
      "slices": {}
    },
    "modality": "bold",
    "run_id": 8,
    "session_id": "12",
    "subject_id": "001",
    "task_id": "HalfFovNoTask",
    "time": {
      "samples": {
        "AcquisitionNumber": [
          1,
          2,
          3,
          4,
          5,
          6,
          7,
          8,
          9,
          10,
          11,
          12,
          13,
          14,
          15,
          16,
          17,
          18,
          19,
          20,
          21,
          22,
          23,
          24,
          25,
          26,
          27,
          28,
          29,
          30,
          31,
          32,
          33,
          34,
          35,
          36,
          37,
          38,
          39,
          40,
          41,
          42,
          43,
          44,
          45,
          46,
          47,
          48,
          49,
          50,
          51,
          52,
          53,
          54,
          55,
          56,
          57,
          58,
          59,
          60,
          61,
          62,
          63,
          64,
          65,
          66,
          67,
          68,
          69,
          70,
          71,
          72,
          73,
          74,
          75,
          76,
          77,
          78,
          79,
          80,
          81,
          82,
          83,
          84,
          85,
          86,
          87,
          88,
          89,
          90,
          91,
          92,
          93,
          94,
          95,
          96,
          97,
          98,
          99,
          100,
          101,
          102,
          103,
          104,
          105,
          106,
          107,
          108,
          109,
          110,
          111,
          112,
          113,
          114,
          115,
          116,
          117,
          118,
          119,
          120,
          121,
          122,
          123,
          124,
          125,
          126,
          127,
          128,
          129,
          130,
          131,
          132,
          133,
          134,
          135,
          136,
          137,
          138,
          139,
          140,
          141,
          142,
          143,
          144,
          145,
          146,
          147,
          148,
          149,
          150,
          151,
          152,
          153,
          154,
          155,
          156,
          157,
          158,
          159,
          160,
          161,
          162,
          163,
          164
        ],
        "AcquisitionTime": [
          "170603.322500",
          "170607.337500",
          "170609.347500",
          "170611.355000",
          "170613.362500",
          "170615.370000",
          "170617.377500",
          "170619.387500",
          "170621.395000",
          "170623.402500",
          "170625.410000",
          "170627.420000",
          "170629.427500",
          "170631.435000",
          "170633.442500",
          "170635.450000",
          "170637.460000",
          "170639.467500",
          "170641.475000",
          "170643.482500",
          "170645.490000",
          "170647.500000",
          "170649.507500",
          "170651.515000",
          "170653.522500",
          "170655.532500",
          "170657.540000",
          "170659.547500",
          "170701.555000",
          "170703.562500",
          "170705.572500",
          "170707.580000",
          "170709.587500",
          "170711.595000",
          "170713.602500",
          "170715.612500",
          "170717.620000",
          "170719.627500",
          "170721.635000",
          "170723.642500",
          "170725.652500",
          "170727.660000",
          "170729.667500",
          "170731.675000",
          "170733.685000",
          "170735.692500",
          "170737.700000",
          "170739.707500",
          "170741.715000",
          "170743.725000",
          "170745.732500",
          "170747.740000",
          "170749.747500",
          "170751.755000",
          "170753.765000",
          "170755.772500",
          "170757.780000",
          "170759.787500",
          "170801.797500",
          "170803.805000",
          "170805.812500",
          "170807.820000",
          "170809.827500",
          "170811.837500",
          "170813.845000",
          "170815.852500",
          "170817.860000",
          "170819.867500",
          "170821.877500",
          "170823.885000",
          "170825.892500",
          "170827.900000",
          "170829.910000",
          "170831.917500",
          "170833.925000",
          "170835.932500",
          "170837.940000",
          "170839.950000",
          "170841.957500",
          "170843.965000",
          "170845.972500",
          "170847.980000",
          "170849.990000",
          "170851.997500",
          "170854.005000",
          "170856.012500",
          "170858.020000",
          "170900.030000",
          "170902.037500",
          "170904.045000",
          "170906.052500",
          "170908.062500",
          "170910.070000",
          "170912.077500",
          "170914.085000",
          "170916.092500",
          "170918.102500",
          "170920.110000",
          "170922.117500",
          "170924.125000",
          "170926.132500",
          "170928.142500",
          "170930.150000",
          "170932.157500",
          "170934.165000",
          "170936.175000",
          "170938.182500",
          "170940.190000",
          "170942.197500",
          "170944.205000",
          "170946.215000",
          "170948.222500",
          "170950.230000",
          "170952.237500",
          "170954.245000",
          "170956.255000",
          "170958.262500",
          "171000.270000",
          "171002.277500",
          "171004.287500",
          "171006.295000",
          "171008.302500",
          "171010.310000",
          "171012.317500",
          "171014.327500",
          "171016.335000",
          "171018.342500",
          "171020.350000",
          "171022.357500",
          "171024.367500",
          "171026.375000",
          "171028.382500",
          "171030.390000",
          "171032.397500",
          "171034.407500",
          "171036.415000",
          "171038.422500",
          "171040.430000",
          "171042.440000",
          "171044.447500",
          "171046.455000",
          "171048.462500",
          "171050.470000",
          "171052.480000",
          "171054.487500",
          "171056.495000",
          "171058.502500",
          "171100.510000",
          "171102.520000",
          "171104.527500",
          "171106.535000",
          "171108.542500",
          "171110.552500",
          "171112.560000",
          "171114.567500",
          "171116.575000",
          "171118.582500",
          "171120.592500",
          "171122.600000",
          "171124.607500",
          "171126.615000",
          "171128.622500",
          "171130.632500",
          "171132.640000"
        ],
        "ContentTime": [
          "170703.855000",
          "170703.855000",
          "170703.855000",
          "170703.855000",
          "170703.855000",
          "170703.855000",
          "170703.871000",
          "170703.871000",
          "170703.871000",
          "170703.871000",
          "170703.871000",
          "170703.871000",
          "170703.871000",
          "170703.887000",
          "170703.887000",
          "170703.887000",
          "170703.887000",
          "170703.887000",
          "170703.887000",
          "170703.887000",
          "170703.902000",
          "170703.902000",
          "170703.902000",
          "170703.902000",
          "170703.902000",
          "170703.902000",
          "170703.933000",
          "170703.933000",
          "170703.949000",
          "170743.840000",
          "170743.840000",
          "170743.840000",
          "170743.840000",
          "170743.840000",
          "170743.855000",
          "170743.855000",
          "170743.855000",
          "170743.855000",
          "170743.855000",
          "170743.871000",
          "170743.871000",
          "170743.871000",
          "170743.871000",
          "170743.871000",
          "170743.871000",
          "170743.887000",
          "170743.887000",
          "170743.887000",
          "170743.902000",
          "170823.840000",
          "170823.840000",
          "170823.840000",
          "170823.840000",
          "170823.840000",
          "170823.855000",
          "170823.855000",
          "170823.855000",
          "170823.855000",
          "170823.855000",
          "170823.871000",
          "170823.871000",
          "170823.871000",
          "170823.871000",
          "170823.871000",
          "170823.871000",
          "170823.871000",
          "170823.887000",
          "170823.887000",
          "170823.887000",
          "170903.840000",
          "170903.840000",
          "170903.840000",
          "170903.840000",
          "170903.840000",
          "170903.855000",
          "170903.855000",
          "170903.855000",
          "170903.855000",
          "170903.855000",
          "170903.871000",
          "170903.871000",
          "170903.871000",
          "170903.871000",
          "170903.871000",
          "170903.871000",
          "170903.871000",
          "170903.887000",
          "170903.887000",
          "170903.887000",
          "170943.840000",
          "170943.840000",
          "170943.840000",
          "170943.840000",
          "170943.840000",
          "170943.855000",
          "170943.855000",
          "170943.855000",
          "170943.855000",
          "170943.855000",
          "170943.871000",
          "170943.871000",
          "170943.871000",
          "170943.871000",
          "170943.871000",
          "170943.871000",
          "170943.871000",
          "170943.887000",
          "170943.887000",
          "170943.887000",
          "171023.840000",
          "171023.840000",
          "171023.840000",
          "171023.840000",
          "171023.840000",
          "171023.855000",
          "171023.855000",
          "171023.855000",
          "171023.855000",
          "171023.871000",
          "171023.871000",
          "171023.871000",
          "171023.871000",
          "171023.871000",
          "171023.871000",
          "171023.871000",
          "171023.887000",
          "171023.887000",
          "171023.887000",
          "171023.887000",
          "171103.840000",
          "171103.840000",
          "171103.840000",
          "171103.840000",
          "171103.855000",
          "171103.855000",
          "171103.855000",
          "171103.855000",
          "171103.855000",
          "171103.855000",
          "171103.855000",
          "171103.871000",
          "171103.871000",
          "171103.871000",
          "171103.871000",
          "171103.871000",
          "171103.871000",
          "171103.871000",
          "171103.887000",
          "171103.887000",
          "171133.637000",
          "171133.637000",
          "171133.637000",
          "171133.637000",
          "171133.637000",
          "171133.637000",
          "171133.652000",
          "171133.652000",
          "171133.652000",
          "171133.652000",
          "171133.652000",
          "171133.652000",
          "171133.652000",
          "171133.668000",
          "171133.668000"
        ],
        "InstanceCreationTime": [
          "170703.855000",
          "170703.855000",
          "170703.855000",
          "170703.855000",
          "170703.855000",
          "170703.855000",
          "170703.871000",
          "170703.871000",
          "170703.871000",
          "170703.871000",
          "170703.871000",
          "170703.871000",
          "170703.871000",
          "170703.887000",
          "170703.887000",
          "170703.887000",
          "170703.887000",
          "170703.887000",
          "170703.887000",
          "170703.887000",
          "170703.902000",
          "170703.902000",
          "170703.902000",
          "170703.902000",
          "170703.902000",
          "170703.902000",
          "170703.933000",
          "170703.933000",
          "170703.949000",
          "170743.840000",
          "170743.840000",
          "170743.840000",
          "170743.840000",
          "170743.840000",
          "170743.855000",
          "170743.855000",
          "170743.855000",
          "170743.855000",
          "170743.855000",
          "170743.871000",
          "170743.871000",
          "170743.871000",
          "170743.871000",
          "170743.871000",
          "170743.871000",
          "170743.887000",
          "170743.887000",
          "170743.887000",
          "170743.902000",
          "170823.840000",
          "170823.840000",
          "170823.840000",
          "170823.840000",
          "170823.840000",
          "170823.855000",
          "170823.855000",
          "170823.855000",
          "170823.855000",
          "170823.855000",
          "170823.871000",
          "170823.871000",
          "170823.871000",
          "170823.871000",
          "170823.871000",
          "170823.871000",
          "170823.871000",
          "170823.887000",
          "170823.887000",
          "170823.887000",
          "170903.840000",
          "170903.840000",
          "170903.840000",
          "170903.840000",
          "170903.840000",
          "170903.855000",
          "170903.855000",
          "170903.855000",
          "170903.855000",
          "170903.855000",
          "170903.871000",
          "170903.871000",
          "170903.871000",
          "170903.871000",
          "170903.871000",
          "170903.871000",
          "170903.871000",
          "170903.887000",
          "170903.887000",
          "170903.887000",
          "170943.840000",
          "170943.840000",
          "170943.840000",
          "170943.840000",
          "170943.840000",
          "170943.855000",
          "170943.855000",
          "170943.855000",
          "170943.855000",
          "170943.855000",
          "170943.871000",
          "170943.871000",
          "170943.871000",
          "170943.871000",
          "170943.871000",
          "170943.871000",
          "170943.871000",
          "170943.887000",
          "170943.887000",
          "170943.887000",
          "171023.840000",
          "171023.840000",
          "171023.840000",
          "171023.840000",
          "171023.840000",
          "171023.855000",
          "171023.855000",
          "171023.855000",
          "171023.855000",
          "171023.871000",
          "171023.871000",
          "171023.871000",
          "171023.871000",
          "171023.871000",
          "171023.871000",
          "171023.871000",
          "171023.887000",
          "171023.887000",
          "171023.887000",
          "171023.887000",
          "171103.840000",
          "171103.840000",
          "171103.840000",
          "171103.840000",
          "171103.855000",
          "171103.855000",
          "171103.855000",
          "171103.855000",
          "171103.855000",
          "171103.855000",
          "171103.855000",
          "171103.871000",
          "171103.871000",
          "171103.871000",
          "171103.871000",
          "171103.871000",
          "171103.871000",
          "171103.871000",
          "171103.887000",
          "171103.887000",
          "171133.637000",
          "171133.637000",
          "171133.637000",
          "171133.637000",
          "171133.637000",
          "171133.637000",
          "171133.652000",
          "171133.652000",
          "171133.652000",
          "171133.652000",
          "171133.652000",
          "171133.652000",
          "171133.652000",
          "171133.668000",
          "171133.668000"
        ],
        "InstanceNumber": [
          1,
          2,
          3,
          4,
          5,
          6,
          7,
          8,
          9,
          10,
          11,
          12,
          13,
          14,
          15,
          16,
          17,
          18,
          19,
          20,
          21,
          22,
          23,
          24,
          25,
          26,
          27,
          28,
          29,
          30,
          31,
          32,
          33,
          34,
          35,
          36,
          37,
          38,
          39,
          40,
          41,
          42,
          43,
          44,
          45,
          46,
          47,
          48,
          49,
          50,
          51,
          52,
          53,
          54,
          55,
          56,
          57,
          58,
          59,
          60,
          61,
          62,
          63,
          64,
          65,
          66,
          67,
          68,
          69,
          70,
          71,
          72,
          73,
          74,
          75,
          76,
          77,
          78,
          79,
          80,
          81,
          82,
          83,
          84,
          85,
          86,
          87,
          88,
          89,
          90,
          91,
          92,
          93,
          94,
          95,
          96,
          97,
          98,
          99,
          100,
          101,
          102,
          103,
          104,
          105,
          106,
          107,
          108,
          109,
          110,
          111,
          112,
          113,
          114,
          115,
          116,
          117,
          118,
          119,
          120,
          121,
          122,
          123,
          124,
          125,
          126,
          127,
          128,
          129,
          130,
          131,
          132,
          133,
          134,
          135,
          136,
          137,
          138,
          139,
          140,
          141,
          142,
          143,
          144,
          145,
          146,
          147,
          148,
          149,
          150,
          151,
          152,
          153,
          154,
          155,
          156,
          157,
          158,
          159,
          160,
          161,
          162,
          163,
          164
        ],
        "WindowCenter": [
          1234.0,
          1230.0,
          1229.0,
          1227.0,
          1227.0,
          1228.0,
          1228.0,
          1227.0,
          1226.0,
          1224.0,
          1226.0,
          1226.0,
          1226.0,
          1224.0,
          1223.0,
          1224.0,
          1226.0,
          1226.0,
          1225.0,
          1225.0,
          1226.0,
          1227.0,
          1225.0,
          1225.0,
          1225.0,
          1226.0,
          1225.0,
          1225.0,
          1224.0,
          1225.0,
          1225.0,
          1225.0,
          1225.0,
          1223.0,
          1224.0,
          1224.0,
          1225.0,
          1226.0,
          1226.0,
          1225.0,
          1225.0,
          1225.0,
          1226.0,
          1225.0,
          1224.0,
          1224.0,
          1225.0,
          1226.0,
          1227.0,
          1228.0,
          1228.0,
          1227.0,
          1228.0,
          1231.0,
          1230.0,
          1229.0,
          1229.0,
          1231.0,
          1231.0,
          1232.0,
          1232.0,
          1231.0,
          1230.0,
          1229.0,
          1228.0,
          1226.0,
          1226.0,
          1226.0,
          1226.0,
          1226.0,
          1227.0,
          1228.0,
          1229.0,
          1227.0,
          1226.0,
          1225.0,
          1227.0,
          1226.0,
          1224.0,
          1224.0,
          1223.0,
          1220.0,
          1217.0,
          1217.0,
          1217.0,
          1220.0,
          1225.0,
          1228.0,
          1228.0,
          1224.0,
          1223.0,
          1226.0,
          1232.0,
          1234.0,
          1234.0,
          1231.0,
          1232.0,
          1234.0,
          1233.0,
          1232.0,
          1231.0,
          1230.0,
          1231.0,
          1231.0,
          1231.0,
          1231.0,
          1229.0,
          1228.0,
          1228.0,
          1228.0,
          1228.0,
          1227.0,
          1228.0,
          1228.0,
          1227.0,
          1227.0,
          1226.0,
          1224.0,
          1224.0,
          1225.0,
          1226.0,
          1226.0,
          1228.0,
          1226.0,
          1229.0,
          1230.0,
          1227.0,
          1224.0,
          1224.0,
          1226.0,
          1227.0,
          1225.0,
          1225.0,
          1225.0,
          1225.0,
          1224.0,
          1223.0,
          1224.0,
          1227.0,
          1228.0,
          1229.0,
          1229.0,
          1229.0,
          1229.0,
          1229.0,
          1230.0,
          1230.0,
          1229.0,
          1229.0,
          1230.0,
          1229.0,
          1230.0,
          1230.0,
          1231.0,
          1230.0,
          1229.0,
          1230.0,
          1230.0,
          1229.0,
          1228.0,
          1226.0,
          1228.0,
          1229.0,
          1229.0
        ],
        "WindowWidth": [
          2892.0,
          2885.0,
          2883.0,
          2878.0,
          2881.0,
          2881.0,
          2882.0,
          2876.0,
          2875.0,
          2872.0,
          2876.0,
          2877.0,
          2878.0,
          2873.0,
          2872.0,
          2872.0,
          2878.0,
          2876.0,
          2872.0,
          2872.0,
          2876.0,
          2878.0,
          2873.0,
          2873.0,
          2875.0,
          2875.0,
          2875.0,
          2872.0,
          2871.0,
          2871.0,
          2875.0,
          2873.0,
          2872.0,
          2871.0,
          2870.0,
          2871.0,
          2873.0,
          2875.0,
          2875.0,
          2874.0,
          2872.0,
          2873.0,
          2873.0,
          2871.0,
          2873.0,
          2873.0,
          2873.0,
          2876.0,
          2877.0,
          2877.0,
          2877.0,
          2880.0,
          2883.0,
          2886.0,
          2885.0,
          2884.0,
          2883.0,
          2888.0,
          2888.0,
          2888.0,
          2889.0,
          2887.0,
          2884.0,
          2880.0,
          2879.0,
          2875.0,
          2875.0,
          2876.0,
          2876.0,
          2874.0,
          2874.0,
          2878.0,
          2882.0,
          2880.0,
          2876.0,
          2872.0,
          2882.0,
          2874.0,
          2871.0,
          2870.0,
          2868.0,
          2860.0,
