{
  "aor": 0.004144695121951219,
  "aqi": 0.0058587873170731705,
  "bids_meta": {
    "AcquisitionMatrixPE": 96,
    "AcquisitionNumber": 1,
    "AcquisitionTime": "16:52:16.062500",
    "BandwidthPerPixelPhaseEncode": 52.083,
    "BaseResolution": 96,
    "BodyPartExamined": "HEAD",
    "ConversionSoftware": "dcm2niix",
    "ConversionSoftwareVersion": "v1.0.20180622 GCC6.3.0",
    "DerivedVendorReportedEchoSpacing": 0.000600004,
    "DeviceSerialNumber": "18926",
    "DwellTime": 2.6e-06,
    "EchoTime": 0.025,
    "EffectiveEchoSpacing": 0.000200001,
    "FlipAngle": 50,
    "ImageOrientationPatientDICOM": [
      0.999992,
      0.000811021,
      0.0040232,
      2.21017e-10,
      0.98028,
      -0.197611
    ],
    "ImageType": [
      "ORIGINAL",
      "PRIMARY",
      "M",
      "ND",
      "ECHO",
      "00",
      "MOSAIC"
    ],
    "InPlanePhaseEncodingDirectionDICOM": "ROW",
    "InstitutionName": "NIMH",
    "InstitutionalDepartmentName": "Department",
    "MRAcquisitionType": "2D",
    "MagneticFieldStrength": 6.98,
    "Manufacturer": "Siemens",
    "ManufacturersModelName": "Investigational_Device_7T",
    "Modality": "MR",
    "ParallelReductionFactorInPlane": 3,
    "PartialFourier": 1,
    "PatientPosition": "HFS",
    "PercentPhaseFOV": 100,
    "PhaseEncodingDirection": "i",
    "PhaseEncodingSteps": 94,
    "PhaseResolution": 1,
    "PixelBandwidth": 2003,
    "ProcedureStepDescription": "MRI_Procedure_Limited",
    "ProtocolName": "NIH_EPI_2.0iso_TR2_Run05",
    "PulseSequenceDetails": "%CustomerSeq%_inati_nih_epi",
    "ReceiveCoilName": "32Ch_Head_7T",
    "ReconMatrixPE": 96,
    "RepetitionTime": 2,
    "SAR": 0.0696005,
    "ScanningSequence": "EP",
    "SequenceName": "epfid2d1_96",
    "SequenceVariant": "SK",
    "SeriesDescription": "NIH_EPI_2.0iso_TR2_Run05",
    "SeriesNumber": 9,
    "ShimSetting": [
      -54,
      274,
      831,
      868,
      -231,
      975,
      388,
      -502
    ],
    "SliceThickness": 2,
    "SliceTiming": [
      1.0025,
      0,
      1.04,
      0.035,
      1.0775,
      0.0725,
      1.115,
      0.11,
      1.1525,
      0.1475,
      1.1875,
      0.185,
      1.225,
      0.2225,
      1.2625,
      0.26,
      1.3,
      0.2975,
      1.3375,
      0.3325,
      1.375,
      0.37,
      1.4125,
      0.4075,
      1.45,
      0.445,
      1.485,
      0.4825,
      1.5225,
      0.52,
      1.56,
      0.5575,
      1.5975,
      0.595,
      1.635,
      0.63,
      1.6725,
      0.6675,
      1.71,
      0.705,
      1.7475,
      0.7425,
      1.7825,
      0.78,
      1.82,
      0.8175,
      1.8575,
      0.855,
      1.895,
      0.89,
      1.9325,
      0.9275,
      1.97,
      0.965
    ],
    "SoftwareVersions": "syngo_MR_B17",
    "SpacingBetweenSlices": 2,
    "StationName": "FMRIFD7T",
    "TaskName": "HalfFovNoTask",
    "TotalReadoutTime": 0.0190001,
    "TxRefAmp": 321,
    "dataset": "ds001555",
    "dcmmeta_affine": [
      [
        -1.9999831914901733,
        4.4203418703148145e-10,
        0.008208253420889378,
        95.76705169677734
      ],
      [
        -0.0016220425022765994,
        1.960560917854309,
        -0.3952191174030304,
        -55.294212341308594
      ],
      [
        0.008046390488743782,
        0.39522242546081543,
        1.960544466972351,
        -48.509117126464844
      ],
      [
        0.0,
        0.0,
        0.0,
        1.0
      ]
    ],
    "dcmmeta_reorient_transform": [
      [
        0.0,
        -1.0,
        0.0,
        95.0
      ],
      [
        1.0,
        0.0,
        0.0,
        0.0
      ],
      [
        0.0,
        0.0,
        1.0,
        0.0
      ],
      [
        0.0,
        0.0,
        0.0,
        1.0
      ]
    ],
    "dcmmeta_shape": [
      96,
      96,
      54,
      164
    ],
    "dcmmeta_slice_dim": 2,
    "dcmmeta_version": 0.6,
    "global": {
      "const": {
        "AcquisitionMatrix": [
          0,
          96,
          96,
          0
        ],
        "Allergies": "No Known Allergies",
        "AngioFlag": "N",
        "BitsAllocated": 16,
        "BitsStored": 12,
        "BodyPartExamined": "HEAD",
        "Columns": 768,
        "EchoNumbers": 1,
        "EchoTime": 25.0,
        "EchoTrainLength": 1,
        "FlipAngle": 50.0,
        "HighBit": 11,
        "ImageOrientationPatient": [
          0.99999157803651,
          0.00081102126218,
          0.0040231953173,
          2.210171e-10,
          0.9802804733507,
          -0.1976112182224
        ],
        "ImagePositionPatient": [
          -767.7613927826,
          -790.25256366957,
          119.1281658306
        ],
        "ImageType": [
          "ORIGINAL",
          "PRIMARY",
          "M",
          "ND",
          "ECHO_00",
          "MOSAIC"
        ],
        "ImagedNucleus": "1H",
        "ImagingFrequency": 297.205043,
        "InPlanePhaseEncodingDirection": "ROW",
        "LargestImagePixelValue": 4095,
        "MRAcquisitionType": "2D",
        "MagneticFieldStrength": 6.98,
        "Manufacturer": "SIEMENS",
        "ManufacturerModelName": "Investigational_Device_7T",
        "Modality": "MR",
        "NumberOfAverages": 1.0,
        "NumberOfPhaseEncodingSteps": 94,
        "PercentPhaseFieldOfView": 100.0,
        "PercentSampling": 100.0,
        "PerformedProcedureStepStartTime": "160630.465000",
        "PhotometricInterpretation": "MONOCHROME2",
        "PixelBandwidth": 2003.0,
        "PixelRepresentation": 0,
        "PixelSpacing": [
          2.0,
          2.0
        ],
        "PositionReferenceIndicator": "",
        "ProcedureCodeSequence": [
          {
            "CodeMeaning": "MRI Procedure Limited",
            "CodeValue": "MI01491",
            "CodingSchemeDesignator": "USA Standard",
            "ContextIdentifier": "4000133397"
          }
        ],
        "ProtocolName": "NIH_EPI_2.0iso_TR2_Run05",
        "ReferencedStudySequence": [
          {
            "ReferencedSOPClassUID": "1.2.840.10008.3.1.2.3.1",
            "ReferencedSOPInstanceUID": "1.2.840.113564.9.1.2787814059.53.2.5000099247"
          }
        ],
        "RepetitionTime": 2000.0,
        "RequestedProcedureCodeSequence": [
          {
            "CodeMeaning": "MRI Procedure Limited",
            "CodeValue": "MI01491",
            "CodingSchemeDesignator": "USA Standard",
            "ContextIdentifier": "4000133397"
          }
        ],
        "RequestingService": "NIMH Molecular Imaging Branch",
        "Rows": 768,
        "SAR": 0.06960045299858,
        "SamplesPerPixel": 1,
        "ScanningSequence": "EP",
        "SequenceName": "epfid2d1_96",
        "SequenceVariant": "SK",
        "SeriesDescription": "NIH_EPI_2.0iso_TR2_Run05",
        "SeriesNumber": 9,
        "SliceLocation": -36.232435293683,
        "SliceThickness": 2.0,
        "SmallestImagePixelValue": 0,
        "SoftwareVersions": "syngo MR B17",
        "SpacingBetweenSlices": 2.0000000022588,
        "TransmitCoilName": "32Ch_Head_7T",
        "VariableFlipAngleFlag": "N",
        "WindowCenterWidthExplanation": "Algo1",
        "dBdt": 0.0
      },
      "slices": {}
    },
    "modality": "bold",
    "run_id": 6,
    "session_id": "12",
    "subject_id": "001",
    "task_id": "HalfFovNoTask",
    "time": {
      "samples": {
        "AcquisitionNumber": [
          1,
          2,
          3,
          4,
          5,
          6,
          7,
          8,
          9,
          10,
          11,
          12,
          13,
          14,
          15,
          16,
          17,
          18,
          19,
          20,
          21,
          22,
          23,
          24,
          25,
          26,
          27,
          28,
          29,
          30,
          31,
          32,
          33,
          34,
          35,
          36,
          37,
          38,
          39,
          40,
          41,
          42,
          43,
          44,
          45,
          46,
          47,
          48,
          49,
          50,
          51,
          52,
          53,
          54,
          55,
          56,
          57,
          58,
          59,
          60,
          61,
          62,
          63,
          64,
          65,
          66,
          67,
          68,
          69,
          70,
          71,
          72,
          73,
          74,
          75,
          76,
          77,
          78,
          79,
          80,
          81,
          82,
          83,
          84,
          85,
          86,
          87,
          88,
          89,
          90,
          91,
          92,
          93,
          94,
          95,
          96,
          97,
          98,
          99,
          100,
          101,
          102,
          103,
          104,
          105,
          106,
          107,
          108,
          109,
          110,
          111,
          112,
          113,
          114,
          115,
          116,
          117,
          118,
          119,
          120,
          121,
          122,
          123,
          124,
          125,
          126,
          127,
          128,
          129,
          130,
          131,
          132,
          133,
          134,
          135,
          136,
          137,
          138,
          139,
          140,
          141,
          142,
          143,
          144,
          145,
          146,
          147,
          148,
          149,
          150,
          151,
          152,
          153,
          154,
          155,
          156,
          157,
          158,
          159,
          160,
          161,
          162,
          163,
          164
        ],
        "AcquisitionTime": [
          "165216.062500",
          "165220.080000",
          "165222.087500",
          "165224.095000",
          "165226.102500",
          "165228.110000",
          "165230.120000",
          "165232.127500",
          "165234.135000",
          "165236.142500",
          "165238.150000",
          "165240.160000",
          "165242.167500",
          "165244.175000",
          "165246.182500",
          "165248.192500",
          "165250.200000",
          "165252.207500",
          "165254.215000",
          "165256.222500",
          "165258.232500",
          "165300.240000",
          "165302.247500",
          "165304.255000",
          "165306.262500",
          "165308.272500",
          "165310.280000",
          "165312.287500",
          "165314.295000",
          "165316.302500",
          "165318.312500",
          "165320.320000",
          "165322.327500",
          "165324.335000",
          "165326.345000",
          "165328.352500",
          "165330.360000",
          "165332.367500",
          "165334.375000",
          "165336.385000",
          "165338.392500",
          "165340.400000",
          "165342.407500",
          "165344.415000",
          "165346.425000",
          "165348.432500",
          "165350.440000",
          "165352.447500",
          "165354.457500",
          "165356.465000",
          "165358.472500",
          "165400.480000",
          "165402.487500",
          "165404.497500",
          "165406.505000",
          "165408.512500",
          "165410.520000",
          "165412.527500",
          "165414.537500",
          "165416.545000",
          "165418.552500",
          "165420.560000",
          "165422.570000",
          "165424.577500",
          "165426.585000",
          "165428.592500",
          "165430.600000",
          "165432.610000",
          "165434.617500",
          "165436.625000",
          "165438.632500",
          "165440.640000",
          "165442.650000",
          "165444.657500",
          "165446.665000",
          "165448.672500",
          "165450.682500",
          "165452.690000",
          "165454.697500",
          "165456.705000",
          "165458.712500",
          "165500.722500",
          "165502.730000",
          "165504.737500",
          "165506.745000",
          "165508.752500",
          "165510.762500",
          "165512.770000",
          "165514.777500",
          "165516.785000",
          "165518.792500",
          "165520.802500",
          "165522.810000",
          "165524.817500",
          "165526.825000",
          "165528.835000",
          "165530.842500",
          "165532.850000",
          "165534.857500",
          "165536.865000",
          "165538.875000",
          "165540.882500",
          "165542.890000",
          "165544.897500",
          "165546.905000",
          "165548.915000",
          "165550.922500",
          "165552.930000",
          "165554.937500",
          "165556.947500",
          "165558.955000",
          "165600.962500",
          "165602.970000",
          "165604.977500",
          "165606.987500",
          "165608.995000",
          "165611.002500",
          "165613.010000",
          "165615.017500",
          "165617.027500",
          "165619.035000",
          "165621.042500",
          "165623.050000",
          "165625.060000",
          "165627.067500",
          "165629.075000",
          "165631.082500",
          "165633.090000",
          "165635.100000",
          "165637.107500",
          "165639.115000",
          "165641.122500",
          "165643.130000",
          "165645.140000",
          "165647.147500",
          "165649.155000",
          "165651.162500",
          "165653.170000",
          "165655.180000",
          "165657.187500",
          "165659.195000",
          "165701.202500",
          "165703.212500",
          "165705.220000",
          "165707.227500",
          "165709.235000",
          "165711.242500",
          "165713.252500",
          "165715.260000",
          "165717.267500",
          "165719.275000",
          "165721.282500",
          "165723.292500",
          "165725.300000",
          "165727.307500",
          "165729.315000",
          "165731.325000",
          "165733.332500",
          "165735.340000",
          "165737.347500",
          "165739.355000",
          "165741.365000",
          "165743.372500",
          "165745.380000"
        ],
        "ContentTime": [
          "165311.387000",
          "165311.387000",
          "165311.387000",
          "165311.387000",
          "165311.402000",
          "165311.402000",
          "165311.402000",
          "165311.402000",
          "165311.402000",
          "165311.402000",
          "165311.418000",
          "165311.418000",
          "165311.418000",
          "165311.418000",
          "165311.418000",
          "165311.418000",
          "165311.433000",
          "165311.433000",
          "165311.433000",
          "165311.433000",
          "165311.433000",
          "165311.433000",
          "165311.449000",
          "165311.449000",
          "165311.449000",
          "165311.449000",
          "165351.371000",
          "165351.371000",
          "165351.371000",
          "165351.371000",
          "165351.371000",
          "165351.387000",
          "165351.387000",
          "165351.387000",
          "165351.387000",
          "165351.387000",
          "165351.387000",
          "165351.402000",
          "165351.402000",
          "165351.402000",
          "165351.402000",
          "165351.402000",
          "165351.418000",
          "165351.418000",
          "165351.418000",
          "165351.418000",
          "165431.371000",
          "165431.371000",
          "165431.371000",
          "165431.371000",
          "165431.387000",
          "165431.387000",
          "165431.387000",
          "165431.387000",
          "165431.387000",
          "165431.387000",
          "165431.387000",
          "165431.402000",
          "165431.402000",
          "165431.402000",
          "165431.402000",
          "165431.402000",
          "165431.402000",
          "165431.402000",
          "165431.418000",
          "165431.418000",
          "165511.371000",
          "165511.371000",
          "165511.371000",
          "165511.371000",
          "165511.371000",
          "165511.387000",
          "165511.387000",
          "165511.387000",
          "165511.387000",
          "165511.387000",
          "165511.387000",
          "165511.402000",
          "165511.402000",
          "165511.402000",
          "165511.402000",
          "165511.402000",
          "165511.402000",
          "165511.402000",
          "165511.418000",
          "165511.418000",
          "165551.371000",
          "165551.371000",
          "165551.371000",
          "165551.371000",
          "165551.387000",
          "165551.387000",
          "165551.387000",
          "165551.387000",
          "165551.387000",
          "165551.387000",
          "165551.387000",
          "165551.402000",
          "165551.402000",
          "165551.402000",
          "165551.402000",
          "165551.402000",
          "165551.402000",
          "165551.418000",
          "165551.418000",
          "165551.418000",
          "165631.371000",
          "165631.371000",
          "165631.371000",
          "165631.371000",
          "165631.387000",
          "165631.387000",
          "165631.387000",
          "165631.402000",
          "165631.402000",
          "165631.402000",
          "165631.402000",
          "165631.402000",
          "165631.402000",
          "165631.418000",
          "165631.418000",
          "165631.418000",
          "165631.418000",
          "165631.418000",
          "165631.418000",
          "165631.433000",
          "165711.371000",
          "165711.371000",
          "165711.371000",
          "165711.371000",
          "165711.371000",
          "165711.387000",
          "165711.387000",
          "165711.387000",
          "165711.387000",
          "165711.387000",
          "165711.387000",
          "165711.402000",
          "165711.402000",
          "165711.402000",
          "165711.402000",
          "165711.402000",
          "165711.402000",
          "165711.402000",
          "165711.418000",
          "165711.418000",
          "165746.246000",
          "165746.246000",
          "165746.262000",
          "165746.262000",
          "165746.262000",
          "165746.262000",
          "165746.277000",
          "165746.277000",
          "165746.277000",
          "165746.293000",
          "165746.293000",
          "165746.293000",
          "165746.293000",
          "165746.293000",
          "165746.293000",
          "165746.308000",
          "165746.308000",
          "165746.308000"
        ],
        "InstanceCreationTime": [
          "165311.387000",
          "165311.387000",
          "165311.387000",
          "165311.387000",
          "165311.402000",
          "165311.402000",
          "165311.402000",
          "165311.402000",
          "165311.402000",
          "165311.402000",
          "165311.418000",
          "165311.418000",
          "165311.418000",
          "165311.418000",
          "165311.418000",
          "165311.418000",
          "165311.433000",
          "165311.433000",
          "165311.433000",
          "165311.433000",
          "165311.433000",
          "165311.433000",
          "165311.449000",
          "165311.449000",
          "165311.449000",
          "165311.449000",
          "165351.371000",
          "165351.371000",
          "165351.371000",
          "165351.371000",
          "165351.371000",
          "165351.387000",
          "165351.387000",
          "165351.387000",
          "165351.387000",
          "165351.387000",
          "165351.387000",
          "165351.402000",
          "165351.402000",
          "165351.402000",
          "165351.402000",
          "165351.402000",
          "165351.418000",
          "165351.418000",
          "165351.418000",
          "165351.418000",
          "165431.371000",
          "165431.371000",
          "165431.371000",
          "165431.371000",
          "165431.387000",
          "165431.387000",
          "165431.387000",
          "165431.387000",
          "165431.387000",
          "165431.387000",
          "165431.387000",
          "165431.402000",
          "165431.402000",
          "165431.402000",
          "165431.402000",
          "165431.402000",
          "165431.402000",
          "165431.402000",
          "165431.418000",
          "165431.418000",
          "165511.371000",
          "165511.371000",
          "165511.371000",
          "165511.371000",
          "165511.371000",
          "165511.387000",
          "165511.387000",
          "165511.387000",
          "165511.387000",
          "165511.387000",
          "165511.387000",
          "165511.402000",
          "165511.402000",
          "165511.402000",
          "165511.402000",
          "165511.402000",
          "165511.402000",
          "165511.402000",
          "165511.418000",
          "165511.418000",
          "165551.371000",
          "165551.371000",
          "165551.371000",
          "165551.371000",
          "165551.387000",
          "165551.387000",
          "165551.387000",
          "165551.387000",
          "165551.387000",
          "165551.387000",
          "165551.387000",
          "165551.402000",
          "165551.402000",
          "165551.402000",
          "165551.402000",
          "165551.402000",
          "165551.402000",
          "165551.418000",
          "165551.418000",
          "165551.418000",
          "165631.371000",
          "165631.371000",
          "165631.371000",
          "165631.371000",
          "165631.387000",
          "165631.387000",
          "165631.387000",
          "165631.402000",
          "165631.402000",
          "165631.402000",
          "165631.402000",
          "165631.402000",
          "165631.402000",
          "165631.418000",
          "165631.418000",
          "165631.418000",
          "165631.418000",
          "165631.418000",
          "165631.418000",
          "165631.433000",
          "165711.371000",
          "165711.371000",
          "165711.371000",
          "165711.371000",
          "165711.371000",
          "165711.387000",
          "165711.387000",
          "165711.387000",
          "165711.387000",
          "165711.387000",
          "165711.387000",
          "165711.402000",
          "165711.402000",
          "165711.402000",
          "165711.402000",
          "165711.402000",
          "165711.402000",
          "165711.402000",
          "165711.418000",
          "165711.418000",
          "165746.246000",
          "165746.246000",
          "165746.262000",
          "165746.262000",
          "165746.262000",
          "165746.262000",
          "165746.277000",
          "165746.277000",
          "165746.277000",
          "165746.293000",
          "165746.293000",
          "165746.293000",
          "165746.293000",
          "165746.293000",
          "165746.293000",
          "165746.308000",
          "165746.308000",
          "165746.308000"
        ],
        "InstanceNumber": [
          1,
          2,
          3,
          4,
          5,
          6,
          7,
          8,
          9,
          10,
          11,
          12,
          13,
          14,
          15,
          16,
          17,
          18,
          19,
          20,
          21,
          22,
          23,
          24,
          25,
          26,
          27,
          28,
          29,
          30,
          31,
          32,
          33,
          34,
          35,
          36,
          37,
          38,
          39,
          40,
          41,
          42,
          43,
          44,
          45,
          46,
          47,
          48,
          49,
          50,
          51,
          52,
          53,
          54,
          55,
          56,
          57,
          58,
          59,
          60,
          61,
          62,
          63,
          64,
          65,
          66,
          67,
          68,
          69,
          70,
          71,
          72,
          73,
          74,
          75,
          76,
          77,
          78,
          79,
          80,
          81,
          82,
          83,
          84,
          85,
          86,
          87,
          88,
          89,
          90,
          91,
          92,
          93,
          94,
          95,
          96,
          97,
          98,
          99,
          100,
          101,
          102,
          103,
          104,
          105,
          106,
          107,
          108,
          109,
          110,
          111,
          112,
          113,
          114,
          115,
          116,
          117,
          118,
          119,
          120,
          121,
          122,
          123,
          124,
          125,
          126,
          127,
          128,
          129,
          130,
          131,
          132,
          133,
          134,
          135,
          136,
          137,
          138,
          139,
          140,
          141,
          142,
          143,
          144,
          145,
          146,
          147,
          148,
          149,
          150,
          151,
          152,
          153,
          154,
          155,
          156,
          157,
          158,
          159,
          160,
          161,
          162,
          163,
          164
        ],
        "WindowCenter": [
          1230.0,
          1228.0,
          1229.0,
          1228.0,
          1227.0,
          1227.0,
          1226.0,
          1225.0,
          1226.0,
          1225.0,
          1224.0,
          1226.0,
          1226.0,
          1228.0,
          1227.0,
          1225.0,
          1223.0,
          1222.0,
          1224.0,
          1226.0,
          1226.0,
          1225.0,
          1225.0,
          1225.0,
          1223.0,
          1226.0,
          1227.0,
          1230.0,
          1229.0,
          1229.0,
          1227.0,
          1221.0,
          1221.0,
          1223.0,
          1224.0,
          1226.0,
          1227.0,
          1228.0,
          1229.0,
          1229.0,
          1228.0,
          1226.0,
          1224.0,
          1224.0,
          1224.0,
          1225.0,
          1225.0,
          1224.0,
          1225.0,
          1225.0,
          1224.0,
          1224.0,
          1224.0,
          1223.0,
          1224.0,
          1226.0,
          1226.0,
          1227.0,
          1228.0,
          1229.0,
          1231.0,
          1230.0,
          1226.0,
          1224.0,
          1225.0,
          1226.0,
          1226.0,
          1225.0,
          1225.0,
          1226.0,
          1228.0,
          1227.0,
          1224.0,
          1225.0,
          1229.0,
          1229.0,
          1228.0,
          1228.0,
          1231.0,
          1232.0,
          1232.0,
          1228.0,
          1228.0,
          1230.0,
          1230.0,
          1228.0,
          1225.0,
          1226.0,
          1225.0,
          1225.0,
          1225.0,
          1225.0,
          1225.0,
          1225.0,
          1225.0,
          1224.0,
          1224.0,
          1224.0,
          1224.0,
          1225.0,
          1225.0,
          1226.0,
          1226.0,
          1227.0,
          1227.0,
          1229.0,
          1229.0,
          1227.0,
          1227.0,
          1228.0,
          1229.0,
          1229.0,
          1228.0,
          1228.0,
          1228.0,
          1230.0,
          1230.0,
          1228.0,
          1227.0,
          1227.0,
          1227.0,
          1226.0,
          1226.0,
          1225.0,
          1225.0,
          1226.0,
          1226.0,
          1226.0,
          1226.0,
          1227.0,
          1227.0,
          1227.0,
          1227.0,
          1227.0,
          1230.0,
          1229.0,
          1228.0,
          1226.0,
          1226.0,
          1230.0,
          1233.0,
          1233.0,
          1231.0,
          1229.0,
          1229.0,
          1228.0,
          1227.0,
          1225.0,
          1226.0,
          1228.0,
          1228.0,
          1229.0,
          1229.0,
          1228.0,
          1228.0,
          1228.0,
          1229.0,
          1230.0,
          1229.0,
          1230.0,
          1231.0,
          1231.0,
          1231.0,
          1231.0
        ],
        "WindowWidth": [
          2883.0,
          2878.0,
          2878.0,
          2877.0,
          2876.0,
          2874.0,
          2872.0,
          2871.0,
          2868.0,
          2866.0,
          2868.0,
          2869.0,
          2872.0,
          2877.0,
          2875.0,
          2870.0,
          2865.0,
          2866.0,
          2870.0,
          2873.0,
          2869.0,
          2869.0,
          2868.0,
          2866.0,
          2865.0,
          2870.0,
          2870.0,
          2876.0,
          2879.0,
          2878.0,
          2871.0,
          2858.0,
          2861.0,
          2863.0,
          2869.0,
          2873.0,
          2874.0,
          2876.0,
          2878.0,
          2880.0,
          2878.0,
          2871.0,
          2865.0,
          2866.0,
          2869.0,
          2868.0,
          2866.0,
          2866.0,
          2869.0,
          2870.0,
          2870.0,
          2869.0,
          2868.0,
          2868.0,
          2870.0,
          2877.0,
          2877.0,
          2878.0,
          2879.0,
          2884.0,
          2885.0,
          2880.0,
          2872.0,
          2869.0,
          2871.0,
          2871.0,
          2872.0,
          2870.0,
          2870.0,
          2875.0,
          2876.0,
          2871.0,
          2870.0,
          2874.0,
          2882.0,
          2880.0,
          2879.0,
          2878.0,
          2885.0,
          2888.0,
          2885.0,
          2879.0,
