{
  "aor": 0.002986768292682927,
  "aqi": 0.003609402987804878,
  "bids_meta": {
    "AcquisitionMatrixPE": 96,
    "AcquisitionNumber": 1,
    "AcquisitionTime": "16:31:58.207500",
    "BandwidthPerPixelPhaseEncode": 52.083,
    "BaseResolution": 96,
    "BodyPartExamined": "HEAD",
    "ConversionSoftware": "dcm2niix",
    "ConversionSoftwareVersion": "v1.0.20180622 GCC6.3.0",
    "DerivedVendorReportedEchoSpacing": 0.000600004,
    "DeviceSerialNumber": "18926",
    "DwellTime": 2.6e-06,
    "EchoTime": 0.025,
    "EffectiveEchoSpacing": 0.000200001,
    "FlipAngle": 50,
    "ImageOrientationPatientDICOM": [
      0.999992,
      0.000811021,
      0.0040232,
      2.21017e-10,
      0.98028,
      -0.197611
    ],
    "ImageType": [
      "ORIGINAL",
      "PRIMARY",
      "M",
      "ND",
      "ECHO",
      "00",
      "MOSAIC"
    ],
    "InPlanePhaseEncodingDirectionDICOM": "ROW",
    "InstitutionName": "NIMH",
    "InstitutionalDepartmentName": "Department",
    "MRAcquisitionType": "2D",
    "MagneticFieldStrength": 6.98,
    "Manufacturer": "Siemens",
    "ManufacturersModelName": "Investigational_Device_7T",
    "Modality": "MR",
    "ParallelReductionFactorInPlane": 3,
    "PartialFourier": 1,
    "PatientPosition": "HFS",
    "PercentPhaseFOV": 100,
    "PhaseEncodingDirection": "i",
    "PhaseEncodingSteps": 94,
    "PhaseResolution": 1,
    "PixelBandwidth": 2003,
    "ProcedureStepDescription": "MRI_Procedure_Limited",
    "ProtocolName": "NIH_EPI_2.0iso_TR2_Run02",
    "PulseSequenceDetails": "%CustomerSeq%_inati_nih_epi",
    "ReceiveCoilName": "32Ch_Head_7T",
    "ReconMatrixPE": 96,
    "RepetitionTime": 2,
    "SAR": 0.0696005,
    "ScanningSequence": "EP",
    "SequenceName": "epfid2d1_96",
    "SequenceVariant": "SK",
    "SeriesDescription": "NIH_EPI_2.0iso_TR2_Run02",
    "SeriesNumber": 6,
    "ShimSetting": [
      -54,
      274,
      831,
      868,
      -231,
      975,
      388,
      -502
    ],
    "SliceThickness": 2,
    "SliceTiming": [
      1.0025,
      0,
      1.04,
      0.0375,
      1.0775,
      0.075,
      1.115,
      0.11,
      1.1525,
      0.1475,
      1.19,
      0.185,
      1.2275,
      0.2225,
      1.2625,
      0.26,
      1.3,
      0.2975,
      1.3375,
      0.335,
      1.375,
      0.37,
      1.4125,
      0.4075,
      1.45,
      0.445,
      1.4875,
      0.4825,
      1.525,
      0.52,
      1.56,
      0.5575,
      1.5975,
      0.595,
      1.635,
      0.6325,
      1.6725,
      0.6675,
      1.71,
      0.705,
      1.7475,
      0.7425,
      1.785,
      0.78,
      1.82,
      0.8175,
      1.8575,
      0.855,
      1.895,
      0.8925,
      1.9325,
      0.93,
      1.97,
      0.965
    ],
    "SoftwareVersions": "syngo_MR_B17",
    "SpacingBetweenSlices": 2,
    "StationName": "FMRIFD7T",
    "TaskName": "HalfFovNoTask",
    "TotalReadoutTime": 0.0190001,
    "TxRefAmp": 321,
    "dataset": "ds001555",
    "dcmmeta_affine": [
      [
        -1.9999831914901733,
        4.4203418703148145e-10,
        0.008208253420889378,
        95.76705169677734
      ],
      [
        -0.0016220425022765994,
        1.960560917854309,
        -0.3952191174030304,
        -55.294212341308594
      ],
      [
        0.008046390488743782,
        0.39522242546081543,
        1.960544466972351,
        -48.509117126464844
      ],
      [
        0.0,
        0.0,
        0.0,
        1.0
      ]
    ],
    "dcmmeta_reorient_transform": [
      [
        0.0,
        -1.0,
        0.0,
        95.0
      ],
      [
        1.0,
        0.0,
        0.0,
        0.0
      ],
      [
        0.0,
        0.0,
        1.0,
        0.0
      ],
      [
        0.0,
        0.0,
        0.0,
        1.0
      ]
    ],
    "dcmmeta_shape": [
      96,
      96,
      54,
      164
    ],
    "dcmmeta_slice_dim": 2,
    "dcmmeta_version": 0.6,
    "global": {
      "const": {
        "AcquisitionMatrix": [
          0,
          96,
          96,
          0
        ],
        "Allergies": "No Known Allergies",
        "AngioFlag": "N",
        "BitsAllocated": 16,
        "BitsStored": 12,
        "BodyPartExamined": "HEAD",
        "Columns": 768,
        "EchoNumbers": 1,
        "EchoTime": 25.0,
        "EchoTrainLength": 1,
        "FlipAngle": 50.0,
        "HighBit": 11,
        "ImageOrientationPatient": [
          0.99999157803651,
          0.00081102126218,
          0.0040231953173,
          2.210171e-10,
          0.9802804733507,
          -0.1976112182224
        ],
        "ImagePositionPatient": [
          -767.7613927826,
          -790.25256366957,
          119.1281658306
        ],
        "ImageType": [
          "ORIGINAL",
          "PRIMARY",
          "M",
          "ND",
          "ECHO_00",
          "MOSAIC"
        ],
        "ImagedNucleus": "1H",
        "ImagingFrequency": 297.20503,
        "InPlanePhaseEncodingDirection": "ROW",
        "LargestImagePixelValue": 4095,
        "MRAcquisitionType": "2D",
        "MagneticFieldStrength": 6.98,
        "Manufacturer": "SIEMENS",
        "ManufacturerModelName": "Investigational_Device_7T",
        "Modality": "MR",
        "NumberOfAverages": 1.0,
        "NumberOfPhaseEncodingSteps": 94,
        "PercentPhaseFieldOfView": 100.0,
        "PercentSampling": 100.0,
        "PerformedProcedureStepStartTime": "160630.465000",
        "PhotometricInterpretation": "MONOCHROME2",
        "PixelBandwidth": 2003.0,
        "PixelRepresentation": 0,
        "PixelSpacing": [
          2.0,
          2.0
        ],
        "PositionReferenceIndicator": "",
        "ProcedureCodeSequence": [
          {
            "CodeMeaning": "MRI Procedure Limited",
            "CodeValue": "MI01491",
            "CodingSchemeDesignator": "USA Standard",
            "ContextIdentifier": "4000133397"
          }
        ],
        "ProtocolName": "NIH_EPI_2.0iso_TR2_Run02",
        "ReferencedStudySequence": [
          {
            "ReferencedSOPClassUID": "1.2.840.10008.3.1.2.3.1",
            "ReferencedSOPInstanceUID": "1.2.840.113564.9.1.2787814059.53.2.5000099247"
          }
        ],
        "RepetitionTime": 2000.0,
        "RequestedProcedureCodeSequence": [
          {
            "CodeMeaning": "MRI Procedure Limited",
            "CodeValue": "MI01491",
            "CodingSchemeDesignator": "USA Standard",
            "ContextIdentifier": "4000133397"
          }
        ],
        "RequestingService": "NIMH Molecular Imaging Branch",
        "Rows": 768,
        "SAR": 0.06960045299858,
        "SamplesPerPixel": 1,
        "ScanningSequence": "EP",
        "SequenceName": "epfid2d1_96",
        "SequenceVariant": "SK",
        "SeriesDescription": "NIH_EPI_2.0iso_TR2_Run02",
        "SeriesNumber": 6,
        "SliceLocation": -36.232435293683,
        "SliceThickness": 2.0,
        "SmallestImagePixelValue": 0,
        "SoftwareVersions": "syngo MR B17",
        "SpacingBetweenSlices": 2.0000000022588,
        "TransmitCoilName": "32Ch_Head_7T",
        "VariableFlipAngleFlag": "N",
        "WindowCenterWidthExplanation": "Algo1",
        "dBdt": 0.0
      },
      "slices": {}
    },
    "modality": "bold",
    "run_id": 3,
    "session_id": "12",
    "subject_id": "001",
    "task_id": "HalfFovNoTask",
    "time": {
      "samples": {
        "AcquisitionNumber": [
          1,
          2,
          3,
          4,
          5,
          6,
          7,
          8,
          9,
          10,
          11,
          12,
          13,
          14,
          15,
          16,
          17,
          18,
          19,
          20,
          21,
          22,
          23,
          24,
          25,
          26,
          27,
          28,
          29,
          30,
          31,
          32,
          33,
          34,
          35,
          36,
          37,
          38,
          39,
          40,
          41,
          42,
          43,
          44,
          45,
          46,
          47,
          48,
          49,
          50,
          51,
          52,
          53,
          54,
          55,
          56,
          57,
          58,
          59,
          60,
          61,
          62,
          63,
          64,
          65,
          66,
          67,
          68,
          69,
          70,
          71,
          72,
          73,
          74,
          75,
          76,
          77,
          78,
          79,
          80,
          81,
          82,
          83,
          84,
          85,
          86,
          87,
          88,
          89,
          90,
          91,
          92,
          93,
          94,
          95,
          96,
          97,
          98,
          99,
          100,
          101,
          102,
          103,
          104,
          105,
          106,
          107,
          108,
          109,
          110,
          111,
          112,
          113,
          114,
          115,
          116,
          117,
          118,
          119,
          120,
          121,
          122,
          123,
          124,
          125,
          126,
          127,
          128,
          129,
          130,
          131,
          132,
          133,
          134,
          135,
          136,
          137,
          138,
          139,
          140,
          141,
          142,
          143,
          144,
          145,
          146,
          147,
          148,
          149,
          150,
          151,
          152,
          153,
          154,
          155,
          156,
          157,
          158,
          159,
          160,
          161,
          162,
          163,
          164
        ],
        "AcquisitionTime": [
          "163158.207500",
          "163202.225000",
          "163204.232500",
          "163206.240000",
          "163208.247500",
          "163210.257500",
          "163212.265000",
          "163214.272500",
          "163216.280000",
          "163218.287500",
          "163220.297500",
          "163222.305000",
          "163224.312500",
          "163226.320000",
          "163228.330000",
          "163230.337500",
          "163232.345000",
          "163234.352500",
          "163236.360000",
          "163238.370000",
          "163240.377500",
          "163242.385000",
          "163244.392500",
          "163246.400000",
          "163248.410000",
          "163250.417500",
          "163252.425000",
          "163254.432500",
          "163256.440000",
          "163258.450000",
          "163300.457500",
          "163302.465000",
          "163304.472500",
          "163306.482500",
          "163308.490000",
          "163310.497500",
          "163312.505000",
          "163314.512500",
          "163316.522500",
          "163318.530000",
          "163320.537500",
          "163322.545000",
          "163324.552500",
          "163326.562500",
          "163328.570000",
          "163330.577500",
          "163332.585000",
          "163334.595000",
          "163336.602500",
          "163338.610000",
          "163340.617500",
          "163342.625000",
          "163344.635000",
          "163346.642500",
          "163348.650000",
          "163350.657500",
          "163352.665000",
          "163354.675000",
          "163356.682500",
          "163358.690000",
          "163400.697500",
          "163402.707500",
          "163404.715000",
          "163406.722500",
          "163408.730000",
          "163410.737500",
          "163412.747500",
          "163414.755000",
          "163416.762500",
          "163418.770000",
          "163420.777500",
          "163422.787500",
          "163424.795000",
          "163426.802500",
          "163428.810000",
          "163430.817500",
          "163432.827500",
          "163434.835000",
          "163436.842500",
          "163438.850000",
          "163440.860000",
          "163442.867500",
          "163444.875000",
          "163446.882500",
          "163448.890000",
          "163450.900000",
          "163452.907500",
          "163454.915000",
          "163456.922500",
          "163458.930000",
          "163500.940000",
          "163502.947500",
          "163504.955000",
          "163506.962500",
          "163508.972500",
          "163510.980000",
          "163512.987500",
          "163514.995000",
          "163517.002500",
          "163519.012500",
          "163521.020000",
          "163523.027500",
          "163525.035000",
          "163527.042500",
          "163529.052500",
          "163531.060000",
          "163533.067500",
          "163535.075000",
          "163537.085000",
          "163539.092500",
          "163541.100000",
          "163543.107500",
          "163545.115000",
          "163547.125000",
          "163549.132500",
          "163551.140000",
          "163553.147500",
          "163555.155000",
          "163557.165000",
          "163559.172500",
          "163601.180000",
          "163603.187500",
          "163605.195000",
          "163607.205000",
          "163609.212500",
          "163611.220000",
          "163613.227500",
          "163615.237500",
          "163617.245000",
          "163619.252500",
          "163621.260000",
          "163623.267500",
          "163625.277500",
          "163627.285000",
          "163629.292500",
          "163631.300000",
          "163633.307500",
          "163635.317500",
          "163637.325000",
          "163639.332500",
          "163641.340000",
          "163643.350000",
          "163645.357500",
          "163647.365000",
          "163649.372500",
          "163651.380000",
          "163653.390000",
          "163655.397500",
          "163657.405000",
          "163659.412500",
          "163701.420000",
          "163703.430000",
          "163705.437500",
          "163707.445000",
          "163709.452500",
          "163711.462500",
          "163713.470000",
          "163715.477500",
          "163717.485000",
          "163719.492500",
          "163721.502500",
          "163723.510000",
          "163725.517500",
          "163727.525000"
        ],
        "ContentTime": [
          "163251.371000",
          "163251.387000",
          "163251.387000",
          "163251.387000",
          "163251.387000",
          "163251.387000",
          "163251.402000",
          "163251.402000",
          "163251.402000",
          "163251.402000",
          "163251.402000",
          "163251.402000",
          "163251.402000",
          "163251.418000",
          "163251.418000",
          "163251.418000",
          "163251.418000",
          "163251.418000",
          "163251.433000",
          "163251.433000",
          "163251.433000",
          "163251.433000",
          "163251.433000",
          "163251.433000",
          "163251.433000",
          "163311.371000",
          "163311.371000",
          "163311.371000",
          "163311.371000",
          "163311.371000",
          "163311.387000",
          "163311.387000",
          "163311.387000",
          "163311.387000",
          "163311.387000",
          "163351.371000",
          "163351.371000",
          "163351.371000",
          "163351.371000",
          "163351.371000",
          "163351.387000",
          "163351.387000",
          "163351.387000",
          "163351.387000",
          "163351.387000",
          "163351.402000",
          "163351.402000",
          "163351.402000",
          "163351.402000",
          "163351.402000",
          "163351.402000",
          "163351.418000",
          "163351.418000",
          "163351.418000",
          "163351.418000",
          "163431.371000",
          "163431.371000",
          "163431.371000",
          "163431.371000",
          "163431.371000",
          "163431.387000",
          "163431.387000",
          "163431.387000",
          "163431.387000",
          "163431.387000",
          "163431.402000",
          "163431.402000",
          "163431.402000",
          "163431.402000",
          "163431.402000",
          "163431.418000",
          "163431.418000",
          "163431.418000",
          "163431.418000",
          "163431.418000",
          "163511.371000",
          "163511.371000",
          "163511.371000",
          "163511.371000",
          "163511.371000",
          "163511.387000",
          "163511.387000",
          "163511.387000",
          "163511.387000",
          "163511.387000",
          "163511.387000",
          "163511.402000",
          "163511.402000",
          "163511.402000",
          "163511.402000",
          "163511.402000",
          "163511.402000",
          "163511.418000",
          "163511.418000",
          "163511.418000",
          "163551.371000",
          "163551.371000",
          "163551.371000",
          "163551.371000",
          "163551.371000",
          "163551.387000",
          "163551.387000",
          "163551.387000",
          "163551.402000",
          "163551.402000",
          "163551.402000",
          "163551.402000",
          "163551.402000",
          "163551.418000",
          "163551.418000",
          "163551.418000",
          "163551.418000",
          "163551.418000",
          "163551.418000",
          "163551.433000",
          "163631.371000",
          "163631.371000",
          "163631.371000",
          "163631.371000",
          "163631.371000",
          "163631.387000",
          "163631.387000",
          "163631.387000",
          "163631.387000",
          "163631.387000",
          "163631.387000",
          "163631.402000",
          "163631.402000",
          "163631.402000",
          "163631.402000",
          "163631.402000",
          "163631.402000",
          "163631.402000",
          "163631.418000",
          "163631.418000",
          "163711.371000",
          "163711.371000",
          "163711.387000",
          "163711.387000",
          "163711.387000",
          "163711.387000",
          "163711.387000",
          "163711.402000",
          "163711.402000",
          "163711.402000",
          "163711.402000",
          "163711.402000",
          "163711.418000",
          "163711.418000",
          "163711.418000",
          "163711.418000",
          "163711.418000",
          "163711.418000",
          "163711.433000",
          "163711.433000",
          "163727.965000",
          "163727.980000",
          "163727.980000",
          "163727.980000",
          "163727.980000",
          "163727.980000",
          "163727.996000",
          "163727.996000",
          "163727.996000"
        ],
        "InstanceCreationTime": [
          "163251.371000",
          "163251.387000",
          "163251.387000",
          "163251.387000",
          "163251.387000",
          "163251.387000",
          "163251.402000",
          "163251.402000",
          "163251.402000",
          "163251.402000",
          "163251.402000",
          "163251.402000",
          "163251.402000",
          "163251.418000",
          "163251.418000",
          "163251.418000",
          "163251.418000",
          "163251.418000",
          "163251.433000",
          "163251.433000",
          "163251.433000",
          "163251.433000",
          "163251.433000",
          "163251.433000",
          "163251.433000",
          "163311.371000",
          "163311.371000",
          "163311.371000",
          "163311.371000",
          "163311.371000",
          "163311.387000",
          "163311.387000",
          "163311.387000",
          "163311.387000",
          "163311.387000",
          "163351.371000",
          "163351.371000",
          "163351.371000",
          "163351.371000",
          "163351.371000",
          "163351.387000",
          "163351.387000",
          "163351.387000",
          "163351.387000",
          "163351.387000",
          "163351.402000",
          "163351.402000",
          "163351.402000",
          "163351.402000",
          "163351.402000",
          "163351.402000",
          "163351.418000",
          "163351.418000",
          "163351.418000",
          "163351.418000",
          "163431.371000",
          "163431.371000",
          "163431.371000",
          "163431.371000",
          "163431.371000",
          "163431.387000",
          "163431.387000",
          "163431.387000",
          "163431.387000",
          "163431.387000",
          "163431.402000",
          "163431.402000",
          "163431.402000",
          "163431.402000",
          "163431.402000",
          "163431.418000",
          "163431.418000",
          "163431.418000",
          "163431.418000",
          "163431.418000",
          "163511.371000",
          "163511.371000",
          "163511.371000",
          "163511.371000",
          "163511.371000",
          "163511.387000",
          "163511.387000",
          "163511.387000",
          "163511.387000",
          "163511.387000",
          "163511.387000",
          "163511.402000",
          "163511.402000",
          "163511.402000",
          "163511.402000",
          "163511.402000",
          "163511.402000",
          "163511.418000",
          "163511.418000",
          "163511.418000",
          "163551.371000",
          "163551.371000",
          "163551.371000",
          "163551.371000",
          "163551.371000",
          "163551.387000",
          "163551.387000",
          "163551.387000",
          "163551.402000",
          "163551.402000",
          "163551.402000",
          "163551.402000",
          "163551.402000",
          "163551.418000",
          "163551.418000",
          "163551.418000",
          "163551.418000",
          "163551.418000",
          "163551.418000",
          "163551.433000",
          "163631.371000",
          "163631.371000",
          "163631.371000",
          "163631.371000",
          "163631.371000",
          "163631.387000",
          "163631.387000",
          "163631.387000",
          "163631.387000",
          "163631.387000",
          "163631.387000",
          "163631.402000",
          "163631.402000",
          "163631.402000",
          "163631.402000",
          "163631.402000",
          "163631.402000",
          "163631.402000",
          "163631.418000",
          "163631.418000",
          "163711.371000",
          "163711.371000",
          "163711.387000",
          "163711.387000",
          "163711.387000",
          "163711.387000",
          "163711.387000",
          "163711.402000",
          "163711.402000",
          "163711.402000",
          "163711.402000",
          "163711.402000",
          "163711.418000",
          "163711.418000",
          "163711.418000",
          "163711.418000",
          "163711.418000",
          "163711.418000",
          "163711.433000",
          "163711.433000",
          "163727.965000",
          "163727.980000",
          "163727.980000",
          "163727.980000",
          "163727.980000",
          "163727.980000",
          "163727.996000",
          "163727.996000",
          "163727.996000"
        ],
        "InstanceNumber": [
          1,
          2,
          3,
          4,
          5,
          6,
          7,
          8,
          9,
          10,
          11,
          12,
          13,
          14,
          15,
          16,
          17,
          18,
          19,
          20,
          21,
          22,
          23,
          24,
          25,
          26,
          27,
          28,
          29,
          30,
          31,
          32,
          33,
          34,
          35,
          36,
          37,
          38,
          39,
          40,
          41,
          42,
          43,
          44,
          45,
          46,
          47,
          48,
          49,
          50,
          51,
          52,
          53,
          54,
          55,
          56,
          57,
          58,
          59,
          60,
          61,
          62,
          63,
          64,
          65,
          66,
          67,
          68,
          69,
          70,
          71,
          72,
          73,
          74,
          75,
          76,
          77,
          78,
          79,
          80,
          81,
          82,
          83,
          84,
          85,
          86,
          87,
          88,
          89,
          90,
          91,
          92,
          93,
          94,
          95,
          96,
          97,
          98,
          99,
          100,
          101,
          102,
          103,
          104,
          105,
          106,
          107,
          108,
          109,
          110,
          111,
          112,
          113,
          114,
          115,
          116,
          117,
          118,
          119,
          120,
          121,
          122,
          123,
          124,
          125,
          126,
          127,
          128,
          129,
          130,
          131,
          132,
          133,
          134,
          135,
          136,
          137,
          138,
          139,
          140,
          141,
          142,
          143,
          144,
          145,
          146,
          147,
          148,
          149,
          150,
          151,
          152,
          153,
          154,
          155,
          156,
          157,
          158,
          159,
          160,
          161,
          162,
          163,
          164
        ],
        "WindowCenter": [
          1226.0,
          1229.0,
          1230.0,
          1228.0,
          1224.0,
          1224.0,
          1225.0,
          1225.0,
          1226.0,
          1225.0,
          1224.0,
          1224.0,
          1225.0,
          1225.0,
          1224.0,
          1225.0,
          1228.0,
          1230.0,
          1229.0,
          1227.0,
          1226.0,
          1228.0,
          1231.0,
          1229.0,
          1227.0,
          1226.0,
          1226.0,
          1226.0,
          1227.0,
          1227.0,
          1227.0,
          1226.0,
          1228.0,
          1230.0,
          1229.0,
          1227.0,
          1226.0,
          1226.0,
          1227.0,
          1226.0,
          1226.0,
          1224.0,
          1226.0,
          1229.0,
          1231.0,
          1230.0,
          1226.0,
          1225.0,
          1225.0,
          1226.0,
          1227.0,
          1226.0,
          1227.0,
          1228.0,
          1229.0,
          1230.0,
          1229.0,
          1227.0,
          1227.0,
          1227.0,
          1228.0,
          1227.0,
          1225.0,
          1225.0,
          1225.0,
          1224.0,
          1222.0,
          1221.0,
          1221.0,
          1222.0,
          1222.0,
          1222.0,
          1224.0,
          1224.0,
          1224.0,
          1223.0,
          1223.0,
          1224.0,
          1226.0,
          1226.0,
          1226.0,
          1226.0,
          1225.0,
          1226.0,
          1225.0,
          1227.0,
          1226.0,
          1225.0,
          1224.0,
          1223.0,
          1228.0,
          1227.0,
          1224.0,
          1222.0,
          1224.0,
          1227.0,
          1227.0,
          1226.0,
          1225.0,
          1228.0,
          1230.0,
          1229.0,
          1228.0,
          1228.0,
          1228.0,
          1228.0,
          1228.0,
          1228.0,
          1226.0,
          1225.0,
          1226.0,
          1230.0,
          1228.0,
          1226.0,
          1225.0,
          1227.0,
          1228.0,
          1228.0,
          1228.0,
          1227.0,
          1227.0,
          1229.0,
          1227.0,
          1227.0,
          1228.0,
          1229.0,
          1229.0,
          1227.0,
          1226.0,
          1227.0,
          1228.0,
          1226.0,
          1224.0,
          1226.0,
          1226.0,
          1227.0,
          1227.0,
          1228.0,
          1230.0,
          1230.0,
          1228.0,
          1226.0,
          1226.0,
          1227.0,
          1227.0,
          1228.0,
          1229.0,
          1227.0,
          1227.0,
          1227.0,
          1227.0,
          1227.0,
          1226.0,
          1226.0,
          1226.0,
          1226.0,
          1225.0,
          1225.0,
          1226.0,
          1225.0,
          1224.0,
          1222.0,
          1223.0,
          1226.0
        ],
        "WindowWidth": [
          2883.0,
          2895.0,
          2894.0,
          2884.0,
          2878.0,
          2880.0,
          2881.0,
          2880.0,
          2879.0,
          2876.0,
          2877.0,
          2881.0,
          2881.0,
          2879.0,
          2876.0,
          2881.0,
          2889.0,
          2893.0,
          2889.0,
          2881.0,
          2885.0,
          2892.0,
          2896.0,
          2891.0,
          2886.0,
          2885.0,
          2883.0,
          2885.0,
          2885.0,
          2886.0,
          2885.0,
          2884.0,
          2889.0,
          2894.0,
          2890.0,
          2885.0,
          2882.0,
          2884.0,
          2886.0,
          2884.0,
          2881.0,
          2878.0,
          2883.0,
          2894.0,
          2895.0,
          2890.0,
          2882.0,
          2881.0,
          2882.0,
          2882.0,
          2885.0,
          2885.0,
          2885.0,
          2886.0,
          2889.0,
          2893.0,
          2889.0,
          2886.0,
          2887.0,
          2887.0,
          2887.0,
          2885.0,
          2880.0,
          2878.0,
          2881.0,
          2877.0,
          2873.0,
          2869.0,
          2870.0,
          2872.0,
          2872.0,
          2873.0,
          2877.0,
          2879.0,
          2878.0,
          2874.0,
          2874.0,
          2877.0,
          2880.0,
          2882.0,
          2885.0,
          2885.0,
