{
  "aor": 0.005658414634146342,
  "aqi": 0.004444725609756097,
  "bids_meta": {
    "AcquisitionMatrixPE": 96,
    "AcquisitionNumber": 1,
    "AcquisitionTime": "17:48:26.670000",
    "BandwidthPerPixelPhaseEncode": 52.083,
    "BaseResolution": 96,
    "BodyPartExamined": "HEAD",
    "ConversionSoftware": "dcm2niix",
    "ConversionSoftwareVersion": "v1.0.20180622 GCC6.3.0",
    "DerivedVendorReportedEchoSpacing": 0.000600004,
    "DeviceSerialNumber": "18926",
    "DwellTime": 2.6e-06,
    "EchoTime": 0.025,
    "EffectiveEchoSpacing": 0.000200001,
    "FlipAngle": 50,
    "ImageOrientationPatientDICOM": [
      0.999992,
      0.000811021,
      0.0040232,
      2.21017e-10,
      0.98028,
      -0.197611
    ],
    "ImageType": [
      "ORIGINAL",
      "PRIMARY",
      "M",
      "ND",
      "ECHO",
      "00",
      "MOSAIC"
    ],
    "InPlanePhaseEncodingDirectionDICOM": "ROW",
    "InstitutionName": "NIMH",
    "InstitutionalDepartmentName": "Department",
    "MRAcquisitionType": "2D",
    "MagneticFieldStrength": 6.98,
    "Manufacturer": "Siemens",
    "ManufacturersModelName": "Investigational_Device_7T",
    "Modality": "MR",
    "ParallelReductionFactorInPlane": 3,
    "PartialFourier": 1,
    "PatientPosition": "HFS",
    "PercentPhaseFOV": 100,
    "PhaseEncodingDirection": "i",
    "PhaseEncodingSteps": 94,
    "PhaseResolution": 1,
    "PixelBandwidth": 2003,
    "ProcedureStepDescription": "MRI_Procedure_Limited",
    "ProtocolName": "NIH_EPI_2.0iso_TR2_Run13",
    "PulseSequenceDetails": "%CustomerSeq%_inati_nih_epi",
    "ReceiveCoilName": "32Ch_Head_7T",
    "ReconMatrixPE": 96,
    "RepetitionTime": 2,
    "SAR": 0.0696005,
    "ScanningSequence": "EP",
    "SequenceName": "epfid2d1_96",
    "SequenceVariant": "SK",
    "SeriesDescription": "NIH_EPI_2.0iso_TR2_Run13",
    "SeriesNumber": 17,
    "ShimSetting": [
      -54,
      274,
      831,
      868,
      -231,
      975,
      388,
      -502
    ],
    "SliceThickness": 2,
    "SliceTiming": [
      1.005,
      0,
      1.0425,
      0.0375,
      1.0775,
      0.075,
      1.115,
      0.1125,
      1.1525,
      0.15,
      1.19,
      0.185,
      1.2275,
      0.2225,
      1.265,
      0.26,
      1.3025,
      0.2975,
      1.34,
      0.335,
      1.375,
      0.3725,
      1.4125,
      0.41,
      1.45,
      0.4475,
      1.4875,
      0.4825,
      1.525,
      0.52,
      1.5625,
      0.5575,
      1.6,
      0.595,
      1.635,
      0.6325,
      1.6725,
      0.67,
      1.71,
      0.7075,
      1.7475,
      0.745,
      1.785,
      0.78,
      1.8225,
      0.8175,
      1.86,
      0.855,
      1.8975,
      0.8925,
      1.9325,
      0.93,
      1.97,
      0.9675
    ],
    "SoftwareVersions": "syngo_MR_B17",
    "SpacingBetweenSlices": 2,
    "StationName": "FMRIFD7T",
    "TaskName": "HalfFovNoTask",
    "TotalReadoutTime": 0.0190001,
    "TxRefAmp": 321,
    "dataset": "ds001555",
    "dcmmeta_affine": [
      [
        -1.9999831914901733,
        4.4203418703148145e-10,
        0.008208253420889378,
        95.76705169677734
      ],
      [
        -0.0016220425022765994,
        1.960560917854309,
        -0.3952191174030304,
        -55.294212341308594
      ],
      [
        0.008046390488743782,
        0.39522242546081543,
        1.960544466972351,
        -48.509117126464844
      ],
      [
        0.0,
        0.0,
        0.0,
        1.0
      ]
    ],
    "dcmmeta_reorient_transform": [
      [
        0.0,
        -1.0,
        0.0,
        95.0
      ],
      [
        1.0,
        0.0,
        0.0,
        0.0
      ],
      [
        0.0,
        0.0,
        1.0,
        0.0
      ],
      [
        0.0,
        0.0,
        0.0,
        1.0
      ]
    ],
    "dcmmeta_shape": [
      96,
      96,
      54,
      164
    ],
    "dcmmeta_slice_dim": 2,
    "dcmmeta_version": 0.6,
    "global": {
      "const": {
        "AcquisitionMatrix": [
          0,
          96,
          96,
          0
        ],
        "Allergies": "No Known Allergies",
        "AngioFlag": "N",
        "BitsAllocated": 16,
        "BitsStored": 12,
        "BodyPartExamined": "HEAD",
        "Columns": 768,
        "EchoNumbers": 1,
        "EchoTime": 25.0,
        "EchoTrainLength": 1,
        "FlipAngle": 50.0,
        "HighBit": 11,
        "ImageOrientationPatient": [
          0.99999157803651,
          0.00081102126218,
          0.0040231953173,
          2.210171e-10,
          0.9802804733507,
          -0.1976112182224
        ],
        "ImagePositionPatient": [
          -767.7613927826,
          -790.25256366957,
          119.1281658306
        ],
        "ImageType": [
          "ORIGINAL",
          "PRIMARY",
          "M",
          "ND",
          "ECHO_00",
          "MOSAIC"
        ],
        "ImagedNucleus": "1H",
        "ImagingFrequency": 297.205087,
        "InPlanePhaseEncodingDirection": "ROW",
        "LargestImagePixelValue": 4095,
        "MRAcquisitionType": "2D",
        "MagneticFieldStrength": 6.98,
        "Manufacturer": "SIEMENS",
        "ManufacturerModelName": "Investigational_Device_7T",
        "Modality": "MR",
        "NumberOfAverages": 1.0,
        "NumberOfPhaseEncodingSteps": 94,
        "PercentPhaseFieldOfView": 100.0,
        "PercentSampling": 100.0,
        "PerformedProcedureStepStartTime": "160630.465000",
        "PhotometricInterpretation": "MONOCHROME2",
        "PixelBandwidth": 2003.0,
        "PixelRepresentation": 0,
        "PixelSpacing": [
          2.0,
          2.0
        ],
        "PositionReferenceIndicator": "",
        "ProcedureCodeSequence": [
          {
            "CodeMeaning": "MRI Procedure Limited",
            "CodeValue": "MI01491",
            "CodingSchemeDesignator": "USA Standard",
            "ContextIdentifier": "4000133397"
          }
        ],
        "ProtocolName": "NIH_EPI_2.0iso_TR2_Run13",
        "ReferencedStudySequence": [
          {
            "ReferencedSOPClassUID": "1.2.840.10008.3.1.2.3.1",
            "ReferencedSOPInstanceUID": "1.2.840.113564.9.1.2787814059.53.2.5000099247"
          }
        ],
        "RepetitionTime": 2000.0,
        "RequestedProcedureCodeSequence": [
          {
            "CodeMeaning": "MRI Procedure Limited",
            "CodeValue": "MI01491",
            "CodingSchemeDesignator": "USA Standard",
            "ContextIdentifier": "4000133397"
          }
        ],
        "RequestingService": "NIMH Molecular Imaging Branch",
        "Rows": 768,
        "SAR": 0.06960045299858,
        "SamplesPerPixel": 1,
        "ScanningSequence": "EP",
        "SequenceName": "epfid2d1_96",
        "SequenceVariant": "SK",
        "SeriesDescription": "NIH_EPI_2.0iso_TR2_Run13",
        "SeriesNumber": 17,
        "SliceLocation": -36.232435293683,
        "SliceThickness": 2.0,
        "SmallestImagePixelValue": 0,
        "SoftwareVersions": "syngo MR B17",
        "SpacingBetweenSlices": 2.0000000022588,
        "TransmitCoilName": "32Ch_Head_7T",
        "VariableFlipAngleFlag": "N",
        "WindowCenterWidthExplanation": "Algo1",
        "dBdt": 0.0
      },
      "slices": {}
    },
    "modality": "bold",
    "run_id": 14,
    "session_id": "12",
    "subject_id": "001",
    "task_id": "HalfFovNoTask",
    "time": {
      "samples": {
        "AcquisitionNumber": [
          1,
          2,
          3,
          4,
          5,
          6,
          7,
          8,
          9,
          10,
          11,
          12,
          13,
          14,
          15,
          16,
          17,
          18,
          19,
          20,
          21,
          22,
          23,
          24,
          25,
          26,
          27,
          28,
          29,
          30,
          31,
          32,
          33,
          34,
          35,
          36,
          37,
          38,
          39,
          40,
          41,
          42,
          43,
          44,
          45,
          46,
          47,
          48,
          49,
          50,
          51,
          52,
          53,
          54,
          55,
          56,
          57,
          58,
          59,
          60,
          61,
          62,
          63,
          64,
          65,
          66,
          67,
          68,
          69,
          70,
          71,
          72,
          73,
          74,
          75,
          76,
          77,
          78,
          79,
          80,
          81,
          82,
          83,
          84,
          85,
          86,
          87,
          88,
          89,
          90,
          91,
          92,
          93,
          94,
          95,
          96,
          97,
          98,
          99,
          100,
          101,
          102,
          103,
          104,
          105,
          106,
          107,
          108,
          109,
          110,
          111,
          112,
          113,
          114,
          115,
          116,
          117,
          118,
          119,
          120,
          121,
          122,
          123,
          124,
          125,
          126,
          127,
          128,
          129,
          130,
          131,
          132,
          133,
          134,
          135,
          136,
          137,
          138,
          139,
          140,
          141,
          142,
          143,
          144,
          145,
          146,
          147,
          148,
          149,
          150,
          151,
          152,
          153,
          154,
          155,
          156,
          157,
          158,
          159,
          160,
          161,
          162,
          163,
          164
        ],
        "AcquisitionTime": [
          "174826.670000",
          "174830.685000",
          "174832.692500",
          "174834.702500",
          "174836.710000",
          "174838.717500",
          "174840.725000",
          "174842.732500",
          "174844.742500",
          "174846.750000",
          "174848.757500",
          "174850.765000",
          "174852.772500",
          "174854.782500",
          "174856.790000",
          "174858.797500",
          "174900.805000",
          "174902.812500",
          "174904.822500",
          "174906.830000",
          "174908.837500",
          "174910.845000",
          "174912.855000",
          "174914.862500",
          "174916.870000",
          "174918.877500",
          "174920.885000",
          "174922.895000",
          "174924.902500",
          "174926.910000",
          "174928.917500",
          "174930.925000",
          "174932.935000",
          "174934.942500",
          "174936.950000",
          "174938.957500",
          "174940.967500",
          "174942.975000",
          "174944.982500",
          "174946.990000",
          "174948.997500",
          "174951.007500",
          "174953.015000",
          "174955.022500",
          "174957.030000",
          "174959.037500",
          "175001.047500",
          "175003.055000",
          "175005.062500",
          "175007.070000",
          "175009.080000",
          "175011.087500",
          "175013.095000",
          "175015.102500",
          "175017.110000",
          "175019.120000",
          "175021.127500",
          "175023.135000",
          "175025.142500",
          "175027.150000",
          "175029.160000",
          "175031.167500",
          "175033.175000",
          "175035.182500",
          "175037.190000",
          "175039.200000",
          "175041.207500",
          "175043.215000",
          "175045.222500",
          "175047.232500",
          "175049.240000",
          "175051.247500",
          "175053.255000",
          "175055.262500",
          "175057.272500",
          "175059.280000",
          "175101.287500",
          "175103.295000",
          "175105.302500",
          "175107.312500",
          "175109.320000",
          "175111.327500",
          "175113.335000",
          "175115.345000",
          "175117.352500",
          "175119.360000",
          "175121.367500",
          "175123.375000",
          "175125.385000",
          "175127.392500",
          "175129.400000",
          "175131.407500",
          "175133.415000",
          "175135.425000",
          "175137.432500",
          "175139.440000",
          "175141.447500",
          "175143.457500",
          "175145.465000",
          "175147.472500",
          "175149.480000",
          "175151.487500",
          "175153.497500",
          "175155.505000",
          "175157.512500",
          "175159.520000",
          "175201.527500",
          "175203.537500",
          "175205.545000",
          "175207.552500",
          "175209.560000",
          "175211.567500",
          "175213.577500",
          "175215.585000",
          "175217.592500",
          "175219.600000",
          "175221.610000",
          "175223.617500",
          "175225.625000",
          "175227.632500",
          "175229.640000",
          "175231.650000",
          "175233.657500",
          "175235.665000",
          "175237.672500",
          "175239.680000",
          "175241.690000",
          "175243.697500",
          "175245.705000",
          "175247.712500",
          "175249.722500",
          "175251.730000",
          "175253.737500",
          "175255.745000",
          "175257.752500",
          "175259.762500",
          "175301.770000",
          "175303.777500",
          "175305.785000",
          "175307.792500",
          "175309.802500",
          "175311.810000",
          "175313.817500",
          "175315.825000",
          "175317.835000",
          "175319.842500",
          "175321.850000",
          "175323.857500",
          "175325.865000",
          "175327.875000",
          "175329.882500",
          "175331.890000",
          "175333.897500",
          "175335.905000",
          "175337.915000",
          "175339.922500",
          "175341.930000",
          "175343.937500",
          "175345.947500",
          "175347.955000",
          "175349.962500",
          "175351.970000",
          "175353.977500",
          "175355.987500"
        ],
        "ContentTime": [
          "174923.855000",
          "174923.855000",
          "174923.855000",
          "174923.855000",
          "174923.855000",
          "174923.855000",
          "174923.871000",
          "174923.871000",
          "174923.871000",
          "174923.871000",
          "174923.871000",
          "174923.871000",
          "174923.871000",
          "174923.887000",
          "174923.887000",
          "174923.887000",
          "174923.887000",
          "174923.902000",
          "174923.902000",
          "174923.902000",
          "174923.902000",
          "174923.918000",
          "174923.918000",
          "174923.918000",
          "174923.918000",
          "174923.918000",
          "174923.918000",
          "175003.840000",
          "175003.840000",
          "175003.840000",
          "175003.840000",
          "175003.840000",
          "175003.855000",
          "175003.855000",
          "175003.855000",
          "175003.855000",
          "175003.871000",
          "175003.871000",
          "175003.871000",
          "175003.871000",
          "175003.871000",
          "175003.871000",
          "175003.871000",
          "175003.887000",
          "175003.887000",
          "175003.887000",
          "175003.887000",
          "175043.840000",
          "175043.840000",
          "175043.840000",
          "175043.840000",
          "175043.840000",
          "175043.855000",
          "175043.855000",
          "175043.855000",
          "175043.855000",
          "175043.871000",
          "175043.871000",
          "175043.871000",
          "175043.871000",
          "175043.871000",
          "175043.871000",
          "175043.887000",
          "175043.887000",
          "175043.887000",
          "175043.887000",
          "175043.887000",
          "175123.840000",
          "175123.840000",
          "175123.840000",
          "175123.840000",
          "175123.840000",
          "175123.855000",
          "175123.855000",
          "175123.855000",
          "175123.855000",
          "175123.855000",
          "175123.855000",
          "175123.871000",
          "175123.871000",
          "175123.871000",
          "175123.871000",
          "175123.887000",
          "175123.887000",
          "175123.887000",
          "175123.887000",
          "175123.887000",
          "175203.840000",
          "175203.840000",
          "175203.840000",
          "175203.855000",
          "175203.855000",
          "175203.855000",
          "175203.855000",
          "175203.855000",
          "175203.855000",
          "175203.871000",
          "175203.871000",
          "175203.871000",
          "175203.871000",
          "175203.871000",
          "175203.871000",
          "175203.871000",
          "175203.887000",
          "175203.887000",
          "175203.887000",
          "175203.887000",
          "175243.840000",
          "175243.840000",
          "175243.840000",
          "175243.840000",
          "175243.840000",
          "175243.855000",
          "175243.855000",
          "175243.855000",
          "175243.855000",
          "175243.855000",
          "175243.855000",
          "175243.871000",
          "175243.871000",
          "175243.871000",
          "175243.871000",
          "175243.871000",
          "175243.871000",
          "175243.871000",
          "175243.887000",
          "175243.887000",
          "175323.840000",
          "175323.840000",
          "175323.840000",
          "175323.855000",
          "175323.855000",
          "175323.855000",
          "175323.855000",
          "175323.855000",
          "175323.855000",
          "175323.871000",
          "175323.871000",
          "175323.871000",
          "175323.871000",
          "175323.871000",
          "175323.887000",
          "175323.887000",
          "175323.887000",
          "175323.887000",
          "175323.887000",
          "175323.887000",
          "175343.840000",
          "175343.840000",
          "175343.840000",
          "175343.840000",
          "175343.840000",
          "175343.855000",
          "175343.855000",
          "175343.855000",
          "175343.855000",
          "175343.855000",
          "175356.527000",
          "175356.527000",
          "175356.527000",
          "175356.527000",
          "175356.527000",
          "175356.543000",
          "175356.543000"
        ],
        "InstanceCreationTime": [
          "174923.855000",
          "174923.855000",
          "174923.855000",
          "174923.855000",
          "174923.855000",
          "174923.855000",
          "174923.871000",
          "174923.871000",
          "174923.871000",
          "174923.871000",
          "174923.871000",
          "174923.871000",
          "174923.871000",
          "174923.887000",
          "174923.887000",
          "174923.887000",
          "174923.887000",
          "174923.902000",
          "174923.902000",
          "174923.902000",
          "174923.902000",
          "174923.918000",
          "174923.918000",
          "174923.918000",
          "174923.918000",
          "174923.918000",
          "174923.918000",
          "175003.840000",
          "175003.840000",
          "175003.840000",
          "175003.840000",
          "175003.840000",
          "175003.855000",
          "175003.855000",
          "175003.855000",
          "175003.855000",
          "175003.871000",
          "175003.871000",
          "175003.871000",
          "175003.871000",
          "175003.871000",
          "175003.871000",
          "175003.871000",
          "175003.887000",
          "175003.887000",
          "175003.887000",
          "175003.887000",
          "175043.840000",
          "175043.840000",
          "175043.840000",
          "175043.840000",
          "175043.840000",
          "175043.855000",
          "175043.855000",
          "175043.855000",
          "175043.855000",
          "175043.871000",
          "175043.871000",
          "175043.871000",
          "175043.871000",
          "175043.871000",
          "175043.871000",
          "175043.887000",
          "175043.887000",
          "175043.887000",
          "175043.887000",
          "175043.887000",
          "175123.840000",
          "175123.840000",
          "175123.840000",
          "175123.840000",
          "175123.840000",
          "175123.855000",
          "175123.855000",
          "175123.855000",
          "175123.855000",
          "175123.855000",
          "175123.855000",
          "175123.871000",
          "175123.871000",
          "175123.871000",
          "175123.871000",
          "175123.887000",
          "175123.887000",
          "175123.887000",
          "175123.887000",
          "175123.887000",
          "175203.840000",
          "175203.840000",
          "175203.840000",
          "175203.855000",
          "175203.855000",
          "175203.855000",
          "175203.855000",
          "175203.855000",
          "175203.855000",
          "175203.871000",
          "175203.871000",
          "175203.871000",
          "175203.871000",
          "175203.871000",
          "175203.871000",
          "175203.871000",
          "175203.887000",
          "175203.887000",
          "175203.887000",
          "175203.887000",
          "175243.840000",
          "175243.840000",
          "175243.840000",
          "175243.840000",
          "175243.840000",
          "175243.855000",
          "175243.855000",
          "175243.855000",
          "175243.855000",
          "175243.855000",
          "175243.855000",
          "175243.871000",
          "175243.871000",
          "175243.871000",
          "175243.871000",
          "175243.871000",
          "175243.871000",
          "175243.871000",
          "175243.887000",
          "175243.887000",
          "175323.840000",
          "175323.840000",
          "175323.840000",
          "175323.855000",
          "175323.855000",
          "175323.855000",
          "175323.855000",
          "175323.855000",
          "175323.855000",
          "175323.871000",
          "175323.871000",
          "175323.871000",
          "175323.871000",
          "175323.871000",
          "175323.887000",
          "175323.887000",
          "175323.887000",
          "175323.887000",
          "175323.887000",
          "175323.887000",
          "175343.840000",
          "175343.840000",
          "175343.840000",
          "175343.840000",
          "175343.840000",
          "175343.855000",
          "175343.855000",
          "175343.855000",
          "175343.855000",
          "175343.855000",
          "175356.527000",
          "175356.527000",
          "175356.527000",
          "175356.527000",
          "175356.527000",
          "175356.543000",
          "175356.543000"
        ],
        "InstanceNumber": [
          1,
          2,
          3,
          4,
          5,
          6,
          7,
          8,
          9,
          10,
          11,
          12,
          13,
          14,
          15,
          16,
          17,
          18,
          19,
          20,
          21,
          22,
          23,
          24,
          25,
          26,
          27,
          28,
          29,
          30,
          31,
          32,
          33,
          34,
          35,
          36,
          37,
          38,
          39,
          40,
          41,
          42,
          43,
          44,
          45,
          46,
          47,
          48,
          49,
          50,
          51,
          52,
          53,
          54,
          55,
          56,
          57,
          58,
          59,
          60,
          61,
          62,
          63,
          64,
          65,
          66,
          67,
          68,
          69,
          70,
          71,
          72,
          73,
          74,
          75,
          76,
          77,
          78,
          79,
          80,
          81,
          82,
          83,
          84,
          85,
          86,
          87,
          88,
          89,
          90,
          91,
          92,
          93,
          94,
          95,
          96,
          97,
          98,
          99,
          100,
          101,
          102,
          103,
          104,
          105,
          106,
          107,
          108,
          109,
          110,
          111,
          112,
          113,
          114,
          115,
          116,
          117,
          118,
          119,
          120,
          121,
          122,
          123,
          124,
          125,
          126,
          127,
          128,
          129,
          130,
          131,
          132,
          133,
          134,
          135,
          136,
          137,
          138,
          139,
          140,
          141,
          142,
          143,
          144,
          145,
          146,
          147,
          148,
          149,
          150,
          151,
          152,
          153,
          154,
          155,
          156,
          157,
          158,
          159,
          160,
          161,
          162,
          163,
          164
        ],
        "WindowCenter": [
          1229.0,
          1228.0,
          1226.0,
          1227.0,
          1227.0,
          1226.0,
          1225.0,
          1227.0,
          1229.0,
          1230.0,
          1229.0,
          1229.0,
          1229.0,
          1227.0,
          1227.0,
          1227.0,
          1230.0,
          1231.0,
          1231.0,
          1228.0,
          1229.0,
          1230.0,
          1230.0,
          1232.0,
          1233.0,
          1233.0,
          1232.0,
          1231.0,
          1230.0,
          1229.0,
          1230.0,
          1231.0,
          1229.0,
          1227.0,
          1228.0,
          1230.0,
          1230.0,
          1229.0,
          1229.0,
          1229.0,
          1229.0,
          1228.0,
          1227.0,
          1226.0,
          1227.0,
          1228.0,
          1229.0,
          1229.0,
          1228.0,
          1229.0,
          1228.0,
          1228.0,
          1229.0,
          1231.0,
          1230.0,
          1228.0,
          1227.0,
          1228.0,
          1229.0,
          1229.0,
          1229.0,
          1229.0,
          1230.0,
          1229.0,
          1228.0,
          1229.0,
          1230.0,
          1230.0,
          1227.0,
          1226.0,
          1227.0,
          1230.0,
          1232.0,
          1231.0,
          1229.0,
          1228.0,
          1229.0,
          1230.0,
          1228.0,
          1226.0,
          1225.0,
          1227.0,
          1228.0,
          1227.0,
          1228.0,
          1227.0,
          1227.0,
          1228.0,
          1227.0,
          1227.0,
          1227.0,
          1228.0,
          1230.0,
          1229.0,
          1229.0,
          1228.0,
          1228.0,
          1229.0,
          1231.0,
          1232.0,
          1232.0,
          1231.0,
          1231.0,
          1230.0,
          1229.0,
          1230.0,
          1230.0,
          1230.0,
          1230.0,
          1229.0,
          1228.0,
          1229.0,
          1230.0,
          1231.0,
          1230.0,
          1229.0,
          1227.0,
          1228.0,
          1228.0,
          1228.0,
          1229.0,
          1230.0,
          1231.0,
          1231.0,
          1232.0,
          1234.0,
          1233.0,
          1231.0,
          1229.0,
          1230.0,
          1230.0,
          1230.0,
          1230.0,
          1229.0,
          1230.0,
          1231.0,
          1232.0,
          1232.0,
          1231.0,
          1229.0,
          1228.0,
          1229.0,
          1229.0,
          1228.0,
          1228.0,
          1228.0,
          1228.0,
          1228.0,
          1231.0,
          1230.0,
          1228.0,
          1226.0,
          1225.0,
          1226.0,
          1227.0,
          1227.0,
          1226.0,
          1226.0,
          1228.0,
          1229.0,
          1229.0,
          1230.0,
          1230.0,
          1230.0
        ],
        "WindowWidth": [
          2875.0,
          2872.0,
          2871.0,
          2869.0,
          2870.0,
          2865.0,
          2868.0,
          2872.0,
          2878.0,
          2876.0,
          2876.0,
          2877.0,
          2876.0,
          2872.0,
          2872.0,
          2874.0,
          2881.0,
          2885.0,
          2883.0,
          2878.0,
          2878.0,
          2881.0,
          2885.0,
          2890.0,
          2890.0,
          2888.0,
          2886.0,
          2883.0,
          2881.0,
          2880.0,
          2883.0,
          2884.0,
          2879.0,
          2877.0,
          2879.0,
          2882.0,
          2880.0,
          2877.0,
          2877.0,
          2879.0,
          2879.0,
          2879.0,
          2875.0,
          2871.0,
          2874.0,
          2878.0,
          2879.0,
          2878.0,
          2877.0,
          2878.0,
          2877.0,
          2875.0,
          2878.0,
          2882.0,
          2879.0,
          2876.0,
          2876.0,
          2877.0,
          2879.0,
          2878.0,
          2879.0,
          2878.0,
          2878.0,
          2877.0,
          2875.0,
          2878.0,
          2882.0,
          2879.0,
          2874.0,
          2872.0,
          2876.0,
          2885.0,
          2887.0,
          2883.0,
          2878.0,
          2875.0,
          2880.0,
          2881.0,
          2875.0,
          2871.0,
          2871.0,
          2874.0,
