{
  "aor": 0.0018873170731707317,
  "aqi": 0.005398096097560976,
  "bids_meta": {
    "AcquisitionMatrixPE": 96,
    "AcquisitionNumber": 1,
    "AcquisitionTime": "19:12:47.682500",
    "BandwidthPerPixelPhaseEncode": 52.083,
    "BaseResolution": 96,
    "BodyPartExamined": "HEAD",
    "ConversionSoftware": "dcm2niix",
    "ConversionSoftwareVersion": "v1.0.20180622 GCC6.3.0",
    "DerivedVendorReportedEchoSpacing": 0.000600004,
    "DeviceSerialNumber": "18926",
    "DwellTime": 2.6e-06,
    "EchoTime": 0.025,
    "EffectiveEchoSpacing": 0.000200001,
    "FlipAngle": 50,
    "ImageOrientationPatientDICOM": [
      0.999992,
      0.00067012,
      0.00404905,
      2.11009e-10,
      0.98658,
      -0.16328
    ],
    "ImageType": [
      "ORIGINAL",
      "PRIMARY",
      "M",
      "ND",
      "ECHO",
      "00",
      "MOSAIC"
    ],
    "InPlanePhaseEncodingDirectionDICOM": "ROW",
    "InstitutionName": "NIMH",
    "InstitutionalDepartmentName": "Department",
    "MRAcquisitionType": "2D",
    "MagneticFieldStrength": 6.98,
    "Manufacturer": "Siemens",
    "ManufacturersModelName": "Investigational_Device_7T",
    "Modality": "MR",
    "ParallelReductionFactorInPlane": 3,
    "PartialFourier": 1,
    "PatientPosition": "HFS",
    "PercentPhaseFOV": 100,
    "PhaseEncodingDirection": "i",
    "PhaseEncodingSteps": 94,
    "PhaseResolution": 1,
    "PixelBandwidth": 2003,
    "ProcedureStepDescription": "UserProtocols_gonzalez",
    "ProtocolName": "NIH_EPI_2.0iso_TR2_Run08",
    "PulseSequenceDetails": "%CustomerSeq%_inati_nih_epi",
    "ReceiveCoilName": "32Ch_Head_7T",
    "ReconMatrixPE": 96,
    "RepetitionTime": 2,
    "SAR": 0.0762284,
    "ScanningSequence": "EP",
    "SequenceName": "epfid2d1_96",
    "SequenceVariant": "SK",
    "SeriesDescription": "NIH_EPI_2.0iso_TR2_Run08",
    "SeriesNumber": 12,
    "ShimSetting": [
      -50,
      191,
      798,
      1012,
      28,
      665,
      75,
      -332
    ],
    "SliceThickness": 2,
    "SliceTiming": [
      1.0025,
      0,
      1.04,
      0.035,
      1.0775,
      0.0725,
      1.115,
      0.11,
      1.1525,
      0.1475,
      1.1875,
      0.185,
      1.225,
      0.2225,
      1.2625,
      0.26,
      1.3,
      0.2975,
      1.3375,
      0.3325,
      1.375,
      0.37,
      1.4125,
      0.4075,
      1.45,
      0.445,
      1.485,
      0.4825,
      1.5225,
      0.52,
      1.56,
      0.5575,
      1.5975,
      0.595,
      1.635,
      0.63,
      1.6725,
      0.6675,
      1.71,
      0.705,
      1.7475,
      0.7425,
      1.7825,
      0.78,
      1.82,
      0.8175,
      1.8575,
      0.855,
      1.895,
      0.89,
      1.9325,
      0.9275,
      1.97,
      0.965
    ],
    "SoftwareVersions": "syngo_MR_B17",
    "SpacingBetweenSlices": 2,
    "StationName": "FMRIFD7T",
    "TaskName": "HalfFovNoTask",
    "TotalReadoutTime": 0.0190001,
    "TxRefAmp": 315,
    "dataset": "ds001555",
    "dcmmeta_affine": [
      [
        -1.9999831914901733,
        4.2201880878778297e-10,
        0.008208253420889378,
        95.76705169677734
      ],
      [
        -0.0013402394251897931,
        1.973159670829773,
        -0.32655632495880127,
        -58.3952751159668
      ],
      [
        0.008098097518086433,
        0.32655906677246094,
        1.9731431007385254,
        -41.57032775878906
      ],
      [
        0.0,
        0.0,
        0.0,
        1.0
      ]
    ],
    "dcmmeta_reorient_transform": [
      [
        0.0,
        -1.0,
        0.0,
        95.0
      ],
      [
        1.0,
        0.0,
        0.0,
        0.0
      ],
      [
        0.0,
        0.0,
        1.0,
        0.0
      ],
      [
        0.0,
        0.0,
        0.0,
        1.0
      ]
    ],
    "dcmmeta_shape": [
      96,
      96,
      54,
      164
    ],
    "dcmmeta_slice_dim": 2,
    "dcmmeta_version": 0.6,
    "global": {
      "const": {
        "AcquisitionMatrix": [
          0,
          96,
          96,
          0
        ],
        "AngioFlag": "N",
        "BitsAllocated": 16,
        "BitsStored": 12,
        "BodyPartExamined": "HEAD",
        "Columns": 768,
        "EchoNumbers": 1,
        "EchoTime": 25.0,
        "EchoTrainLength": 1,
        "FlipAngle": 50.0,
        "HighBit": 11,
        "ImageOrientationPatient": [
          0.99999157803662,
          0.00067011969073,
          0.00404904870684,
          2.110094e-10,
          0.98657984636313,
          -0.1632795356133
        ],
        "ImagePositionPatient": [
          -767.761392775,
          -792.48687407585,
          96.455670438306
        ],
        "ImageType": [
          "ORIGINAL",
          "PRIMARY",
          "M",
          "ND",
          "ECHO_00",
          "MOSAIC"
        ],
        "ImagedNucleus": "1H",
        "ImagingFrequency": 297.205113,
        "InPlanePhaseEncodingDirection": "ROW",
        "LargestImagePixelValue": 4095,
        "MRAcquisitionType": "2D",
        "MagneticFieldStrength": 6.98,
        "Manufacturer": "SIEMENS",
        "ManufacturerModelName": "Investigational_Device_7T",
        "Modality": "MR",
        "NumberOfAverages": 1.0,
        "NumberOfPhaseEncodingSteps": 94,
        "PercentPhaseFieldOfView": 100.0,
        "PercentSampling": 100.0,
        "PerformedProcedureStepStartTime": "180252.597000",
        "PhotometricInterpretation": "MONOCHROME2",
        "PixelBandwidth": 2003.0,
        "PixelRepresentation": 0,
        "PixelSpacing": [
          2.0,
          2.0
        ],
        "PositionReferenceIndicator": "",
        "ProtocolName": "NIH_EPI_2.0iso_TR2_Run08",
        "RepetitionTime": 2000.0,
        "Rows": 768,
        "SAR": 0.07622842811543,
        "SamplesPerPixel": 1,
        "ScanningSequence": "EP",
        "SequenceName": "epfid2d1_96",
        "SequenceVariant": "SK",
        "SeriesDescription": "NIH_EPI_2.0iso_TR2_Run08",
        "SeriesNumber": 12,
        "SliceLocation": -31.084389907735,
        "SliceThickness": 2.0,
        "SmallestImagePixelValue": 0,
        "SoftwareVersions": "syngo MR B17",
        "SpacingBetweenSlices": 2.0000000184226,
        "TransmitCoilName": "32Ch_Head_7T",
        "VariableFlipAngleFlag": "N",
        "WindowCenterWidthExplanation": "Algo1",
        "dBdt": 0.0
      },
      "slices": {}
    },
    "modality": "bold",
    "run_id": 9,
    "session_id": "02",
    "subject_id": "001",
    "task_id": "HalfFovNoTask",
    "time": {
      "samples": {
        "AcquisitionNumber": [
          1,
          2,
          3,
          4,
          5,
          6,
          7,
          8,
          9,
          10,
          11,
          12,
          13,
          14,
          15,
          16,
          17,
          18,
          19,
          20,
          21,
          22,
          23,
          24,
          25,
          26,
          27,
          28,
          29,
          30,
          31,
          32,
          33,
          34,
          35,
          36,
          37,
          38,
          39,
          40,
          41,
          42,
          43,
          44,
          45,
          46,
          47,
          48,
          49,
          50,
          51,
          52,
          53,
          54,
          55,
          56,
          57,
          58,
          59,
          60,
          61,
          62,
          63,
          64,
          65,
          66,
          67,
          68,
          69,
          70,
          71,
          72,
          73,
          74,
          75,
          76,
          77,
          78,
          79,
          80,
          81,
          82,
          83,
          84,
          85,
          86,
          87,
          88,
          89,
          90,
          91,
          92,
          93,
          94,
          95,
          96,
          97,
          98,
          99,
          100,
          101,
          102,
          103,
          104,
          105,
          106,
          107,
          108,
          109,
          110,
          111,
          112,
          113,
          114,
          115,
          116,
          117,
          118,
          119,
          120,
          121,
          122,
          123,
          124,
          125,
          126,
          127,
          128,
          129,
          130,
          131,
          132,
          133,
          134,
          135,
          136,
          137,
          138,
          139,
          140,
          141,
          142,
          143,
          144,
          145,
          146,
          147,
          148,
          149,
          150,
          151,
          152,
          153,
          154,
          155,
          156,
          157,
          158,
          159,
          160,
          161,
          162,
          163,
          164
        ],
        "AcquisitionTime": [
          "191247.682500",
          "191251.700000",
          "191253.707500",
          "191255.715000",
          "191257.722500",
          "191259.730000",
          "191301.740000",
          "191303.747500",
          "191305.755000",
          "191307.762500",
          "191309.770000",
          "191311.780000",
          "191313.787500",
          "191315.795000",
          "191317.802500",
          "191319.812500",
          "191321.820000",
          "191323.827500",
          "191325.835000",
          "191327.842500",
          "191329.852500",
          "191331.860000",
          "191333.867500",
          "191335.875000",
          "191337.882500",
          "191339.892500",
          "191341.900000",
          "191343.907500",
          "191345.915000",
          "191347.922500",
          "191349.932500",
          "191351.940000",
          "191353.947500",
          "191355.955000",
          "191357.965000",
          "191359.972500",
          "191401.980000",
          "191403.987500",
          "191405.995000",
          "191408.005000",
          "191410.012500",
          "191412.020000",
          "191414.027500",
          "191416.035000",
          "191418.045000",
          "191420.052500",
          "191422.060000",
          "191424.067500",
          "191426.077500",
          "191428.085000",
          "191430.092500",
          "191432.100000",
          "191434.107500",
          "191436.117500",
          "191438.125000",
          "191440.132500",
          "191442.140000",
          "191444.147500",
          "191446.157500",
          "191448.165000",
          "191450.172500",
          "191452.180000",
          "191454.190000",
          "191456.197500",
          "191458.205000",
          "191500.212500",
          "191502.220000",
          "191504.230000",
          "191506.237500",
          "191508.245000",
          "191510.252500",
          "191512.260000",
          "191514.270000",
          "191516.277500",
          "191518.285000",
          "191520.292500",
          "191522.302500",
          "191524.310000",
          "191526.317500",
          "191528.325000",
          "191530.332500",
          "191532.342500",
          "191534.350000",
          "191536.357500",
          "191538.365000",
          "191540.372500",
          "191542.382500",
          "191544.390000",
          "191546.397500",
          "191548.405000",
          "191550.412500",
          "191552.422500",
          "191554.430000",
          "191556.437500",
          "191558.445000",
          "191600.455000",
          "191602.462500",
          "191604.470000",
          "191606.477500",
          "191608.485000",
          "191610.495000",
          "191612.502500",
          "191614.510000",
          "191616.517500",
          "191618.525000",
          "191620.535000",
          "191622.542500",
          "191624.550000",
          "191626.557500",
          "191628.567500",
          "191630.575000",
          "191632.582500",
          "191634.590000",
          "191636.597500",
          "191638.607500",
          "191640.615000",
          "191642.622500",
          "191644.630000",
          "191646.637500",
          "191648.647500",
          "191650.655000",
          "191652.662500",
          "191654.670000",
          "191656.680000",
          "191658.687500",
          "191700.695000",
          "191702.702500",
          "191704.710000",
          "191706.720000",
          "191708.727500",
          "191710.735000",
          "191712.742500",
          "191714.750000",
          "191716.760000",
          "191718.767500",
          "191720.775000",
          "191722.782500",
          "191724.790000",
          "191726.800000",
          "191728.807500",
          "191730.815000",
          "191732.822500",
          "191734.832500",
          "191736.840000",
          "191738.847500",
          "191740.855000",
          "191742.862500",
          "191744.872500",
          "191746.880000",
          "191748.887500",
          "191750.895000",
          "191752.902500",
          "191754.912500",
          "191756.920000",
          "191758.927500",
          "191800.935000",
          "191802.945000",
          "191804.952500",
          "191806.960000",
          "191808.967500",
          "191810.975000",
          "191812.985000",
          "191814.992500",
          "191817.000000"
        ],
        "ContentTime": [
          "191318.222000",
          "191318.222000",
          "191318.238000",
          "191318.238000",
          "191318.238000",
          "191318.238000",
          "191318.238000",
          "191318.254000",
          "191318.254000",
          "191318.254000",
          "191318.254000",
          "191318.254000",
          "191318.269000",
          "191358.207000",
          "191358.207000",
          "191358.222000",
          "191358.222000",
          "191358.222000",
          "191358.222000",
          "191358.238000",
          "191358.238000",
          "191358.254000",
          "191358.254000",
          "191358.254000",
          "191358.254000",
          "191358.254000",
          "191358.254000",
          "191358.269000",
          "191358.269000",
          "191358.269000",
          "191358.269000",
          "191358.269000",
          "191358.269000",
          "191438.207000",
          "191438.222000",
          "191438.222000",
          "191438.254000",
          "191438.254000",
          "191438.254000",
          "191438.254000",
          "191438.254000",
          "191438.254000",
          "191438.269000",
          "191438.269000",
          "191438.269000",
          "191438.269000",
          "191438.269000",
          "191438.269000",
          "191438.285000",
          "191438.285000",
          "191438.285000",
          "191438.285000",
          "191438.285000",
          "191518.207000",
          "191518.207000",
          "191518.207000",
          "191518.222000",
          "191518.222000",
          "191518.222000",
          "191518.222000",
          "191518.238000",
          "191518.238000",
          "191518.238000",
          "191518.238000",
          "191518.238000",
          "191518.238000",
          "191518.254000",
          "191518.254000",
          "191518.254000",
          "191518.254000",
          "191518.254000",
          "191518.254000",
          "191518.269000",
          "191558.207000",
          "191558.207000",
          "191558.207000",
          "191558.238000",
          "191558.238000",
          "191558.238000",
          "191558.238000",
          "191558.238000",
          "191558.254000",
          "191558.269000",
          "191558.269000",
          "191558.269000",
          "191558.269000",
          "191558.269000",
          "191558.285000",
          "191558.285000",
          "191558.285000",
          "191558.285000",
          "191558.285000",
          "191558.285000",
          "191558.300000",
          "191658.207000",
          "191658.207000",
          "191658.207000",
          "191658.222000",
          "191658.222000",
          "191658.222000",
          "191658.222000",
          "191658.222000",
          "191658.222000",
          "191658.238000",
          "191658.238000",
          "191658.238000",
          "191658.238000",
          "191658.238000",
          "191658.238000",
          "191658.238000",
          "191658.254000",
          "191658.254000",
          "191658.254000",
          "191658.254000",
          "191658.254000",
          "191658.254000",
          "191658.269000",
          "191658.269000",
          "191658.269000",
          "191658.285000",
          "191658.285000",
          "191658.285000",
          "191658.285000",
          "191658.285000",
          "191738.207000",
          "191738.207000",
          "191738.207000",
          "191738.222000",
          "191738.222000",
          "191738.222000",
          "191738.222000",
          "191738.222000",
          "191738.222000",
          "191738.222000",
          "191738.238000",
          "191738.238000",
          "191738.238000",
          "191738.254000",
          "191738.254000",
          "191738.254000",
          "191738.254000",
          "191738.254000",
          "191738.269000",
          "191738.269000",
          "191818.191000",
          "191818.191000",
          "191818.191000",
          "191818.207000",
          "191818.207000",
          "191818.207000",
          "191818.207000",
          "191818.207000",
          "191818.207000",
          "191818.222000",
          "191818.222000",
          "191818.222000",
          "191818.222000",
          "191818.222000",
          "191818.222000",
          "191818.238000",
          "191818.238000",
          "191818.254000",
          "191818.254000",
          "191818.254000"
        ],
        "InstanceCreationTime": [
          "191318.222000",
          "191318.222000",
          "191318.238000",
          "191318.238000",
          "191318.238000",
          "191318.238000",
          "191318.238000",
          "191318.254000",
          "191318.254000",
          "191318.254000",
          "191318.254000",
          "191318.254000",
          "191318.269000",
          "191358.207000",
          "191358.207000",
          "191358.222000",
          "191358.222000",
          "191358.222000",
          "191358.222000",
          "191358.238000",
          "191358.238000",
          "191358.254000",
          "191358.254000",
          "191358.254000",
          "191358.254000",
          "191358.254000",
          "191358.254000",
          "191358.269000",
          "191358.269000",
          "191358.269000",
          "191358.269000",
          "191358.269000",
          "191358.269000",
          "191438.207000",
          "191438.222000",
          "191438.222000",
          "191438.254000",
          "191438.254000",
          "191438.254000",
          "191438.254000",
          "191438.254000",
          "191438.254000",
          "191438.269000",
          "191438.269000",
          "191438.269000",
          "191438.269000",
          "191438.269000",
          "191438.269000",
          "191438.285000",
          "191438.285000",
          "191438.285000",
          "191438.285000",
          "191438.285000",
          "191518.207000",
          "191518.207000",
          "191518.207000",
          "191518.222000",
          "191518.222000",
          "191518.222000",
          "191518.222000",
          "191518.238000",
          "191518.238000",
          "191518.238000",
          "191518.238000",
          "191518.238000",
          "191518.238000",
          "191518.254000",
          "191518.254000",
          "191518.254000",
          "191518.254000",
          "191518.254000",
          "191518.254000",
          "191518.269000",
          "191558.207000",
          "191558.207000",
          "191558.207000",
          "191558.238000",
          "191558.238000",
          "191558.238000",
          "191558.238000",
          "191558.238000",
          "191558.254000",
          "191558.269000",
          "191558.269000",
          "191558.269000",
          "191558.269000",
          "191558.269000",
          "191558.285000",
          "191558.285000",
          "191558.285000",
          "191558.285000",
          "191558.285000",
          "191558.285000",
          "191558.300000",
          "191658.207000",
          "191658.207000",
          "191658.207000",
          "191658.222000",
          "191658.222000",
          "191658.222000",
          "191658.222000",
          "191658.222000",
          "191658.222000",
          "191658.238000",
          "191658.238000",
          "191658.238000",
          "191658.238000",
          "191658.238000",
          "191658.238000",
          "191658.238000",
          "191658.254000",
          "191658.254000",
          "191658.254000",
          "191658.254000",
          "191658.254000",
          "191658.254000",
          "191658.269000",
          "191658.269000",
          "191658.269000",
          "191658.285000",
          "191658.285000",
          "191658.285000",
          "191658.285000",
          "191658.285000",
          "191738.207000",
          "191738.207000",
          "191738.207000",
          "191738.222000",
          "191738.222000",
          "191738.222000",
          "191738.222000",
          "191738.222000",
          "191738.222000",
          "191738.222000",
          "191738.238000",
          "191738.238000",
          "191738.238000",
          "191738.254000",
          "191738.254000",
          "191738.254000",
          "191738.254000",
          "191738.254000",
          "191738.269000",
          "191738.269000",
          "191818.191000",
          "191818.191000",
          "191818.191000",
          "191818.207000",
          "191818.207000",
          "191818.207000",
          "191818.207000",
          "191818.207000",
          "191818.207000",
          "191818.222000",
          "191818.222000",
          "191818.222000",
          "191818.222000",
          "191818.222000",
          "191818.222000",
          "191818.238000",
          "191818.238000",
          "191818.254000",
          "191818.254000",
          "191818.254000"
        ],
        "InstanceNumber": [
          1,
          2,
          3,
          4,
          5,
          6,
          7,
          8,
          9,
          10,
          11,
          12,
          13,
          14,
          15,
          16,
          17,
          18,
          19,
          20,
          21,
          22,
          23,
          24,
          25,
          26,
          27,
          28,
          29,
          30,
          31,
          32,
          33,
          34,
          35,
          36,
          37,
          38,
          39,
          40,
          41,
          42,
          43,
          44,
          45,
          46,
          47,
          48,
          49,
          50,
          51,
          52,
          53,
          54,
          55,
          56,
          57,
          58,
          59,
          60,
          61,
          62,
          63,
          64,
          65,
          66,
          67,
          68,
          69,
          70,
          71,
          72,
          73,
          74,
          75,
          76,
          77,
          78,
          79,
          80,
          81,
          82,
          83,
          84,
          85,
          86,
          87,
          88,
          89,
          90,
          91,
          92,
          93,
          94,
          95,
          96,
          97,
          98,
          99,
          100,
          101,
          102,
          103,
          104,
          105,
          106,
          107,
          108,
          109,
          110,
          111,
          112,
          113,
          114,
          115,
          116,
          117,
          118,
          119,
          120,
          121,
          122,
          123,
          124,
          125,
          126,
          127,
          128,
          129,
          130,
          131,
          132,
          133,
          134,
          135,
          136,
          137,
          138,
          139,
          140,
          141,
          142,
          143,
          144,
          145,
          146,
          147,
          148,
          149,
          150,
          151,
          152,
          153,
          154,
          155,
          156,
          157,
          158,
          159,
          160,
          161,
          162,
          163,
          164
        ],
        "WindowCenter": [
          1181.0,
          1181.0,
          1180.0,
          1181.0,
          1180.0,
          1176.0,
          1176.0,
          1176.0,
          1176.0,
          1174.0,
          1175.0,
          1175.0,
          1172.0,
          1172.0,
          1172.0,
          1176.0,
          1179.0,
          1181.0,
          1181.0,
          1180.0,
          1179.0,
          1179.0,
          1181.0,
          1183.0,
          1183.0,
          1181.0,
          1180.0,
          1180.0,
          1182.0,
          1182.0,
          1179.0,
          1178.0,
          1177.0,
          1177.0,
          1177.0,
          1177.0,
          1176.0,
          1176.0,
          1176.0,
          1175.0,
          1175.0,
          1176.0,
          1178.0,
          1179.0,
          1177.0,
          1175.0,
          1175.0,
          1176.0,
          1178.0,
          1178.0,
          1178.0,
          1179.0,
          1180.0,
          1180.0,
          1180.0,
          1182.0,
          1182.0,
          1178.0,
          1176.0,
          1175.0,
          1178.0,
          1181.0,
          1181.0,
          1181.0,
          1178.0,
          1176.0,
          1175.0,
          1175.0,
          1176.0,
          1178.0,
          1176.0,
          1176.0,
          1175.0,
          1177.0,
          1178.0,
          1178.0,
          1178.0,
          1177.0,
          1178.0,
          1180.0,
          1179.0,
          1179.0,
          1178.0,
          1176.0,
          1175.0,
          1174.0,
          1176.0,
          1178.0,
          1179.0,
          1179.0,
          1179.0,
          1175.0,
          1176.0,
          1176.0,
          1176.0,
          1177.0,
          1178.0,
          1179.0,
          1180.0,
          1179.0,
          1178.0,
          1177.0,
          1178.0,
          1179.0,
          1180.0,
          1178.0,
          1177.0,
          1178.0,
          1178.0,
          1178.0,
          1177.0,
          1175.0,
          1178.0,
          1178.0,
          1177.0,
          1178.0,
          1179.0,
          1179.0,
          1179.0,
          1178.0,
          1177.0,
          1178.0,
          1179.0,
          1181.0,
          1179.0,
          1178.0,
          1179.0,
          1178.0,
          1178.0,
          1177.0,
          1177.0,
          1176.0,
          1178.0,
          1179.0,
          1179.0,
          1179.0,
          1179.0,
          1178.0,
          1179.0,
          1179.0,
          1180.0,
          1177.0,
          1177.0,
          1178.0,
          1179.0,
          1180.0,
          1181.0,
          1179.0,
          1180.0,
          1180.0,
          1179.0,
          1180.0,
          1180.0,
          1178.0,
          1177.0,
          1178.0,
          1178.0,
          1180.0,
          1182.0,
          1181.0,
          1183.0,
          1186.0,
          1185.0,
          1182.0
        ],
        "WindowWidth": [
          2850.0,
          2852.0,
          2852.0,
          2850.0,
          2845.0,
          2838.0,
          2836.0,
          2840.0,
          2840.0,
          2835.0,
          2834.0,
          2834.0,
          2825.0,
          2826.0,
          2831.0,
          2836.0,
          2848.0,
          2852.0,
          2852.0,
          2849.0,
          2847.0,
          2852.0,
          2854.0,
          2861.0,
          2858.0,
          2854.0,
          2853.0,
          2854.0,
          2857.0,
          2856.0,
          2848.0,
          2842.0,
          2843.0,
          2841.0,
          2843.0,
          2844.0,
          2841.0,
          2842.0,
          2840.0,
          2839.0,
          2837.0,
          2840.0,
          2846.0,
          2847.0,
          2841.0,
          2835.0,
          2837.0,
          2841.0,
          2844.0,
          2846.0,
          2845.0,
          2847.0,
          2849.0,
          2846.0,
          2851.0,
          2854.0,
          2849.0,
          2837.0,
          2836.0,
          2837.0,
          2846.0,
          2853.0,
          2853.0,
          2852.0,
          2846.0,
          2840.0,
          2836.0,
          2835.0,
          2840.0,
          2841.0,
          2838.0,
          2839.0,
          2838.0,
          2841.0,
          2845.0,
          2843.0,
          2844.0,
          2845.0,
          2847.0,
          2849.0,
          2848.0,
          2846.0,
          2846.0,
          2841.0,
          2837.0,
          2835.0,
          2841.0,
          2847.0,
          2848.0,
          2847.0,
          2842.0,
          2838.0,
          2839.0,
          2841.0,
          2840.0,
          2844.0,
          2845.0,
          2847.0,
          2847.0,
          2844.0,
          2841.0,
          2842.0,
          2846.0,
          2849.0,
          2849.0,
          2846.0,
          2844.0,
          2846.0,
          2844.0,
          2841.0,
          2839.0,
          2837.0,
          2841.0,
          2844.0,
          2844.0,
          2844.0,
          2847.0,
          2848.0,
          2846.0,
          2841.0,
          2841.0,
          2844.0,
          2849.0,
          2849.0,
          2844.0,
          2843.0,
          2842.0,
          2841.0,
          2843.0,
