{
  "aor": 0.0018609146341463415,
  "aqi": 0.004651109939024391,
  "bids_meta": {
    "AcquisitionMatrixPE": 96,
    "AcquisitionNumber": 1,
    "AcquisitionTime": "18:59:42.905000",
    "BandwidthPerPixelPhaseEncode": 52.083,
    "BaseResolution": 96,
    "BodyPartExamined": "HEAD",
    "ConversionSoftware": "dcm2niix",
    "ConversionSoftwareVersion": "v1.0.20180622 GCC6.3.0",
    "DerivedVendorReportedEchoSpacing": 0.000600004,
    "DeviceSerialNumber": "18926",
    "DwellTime": 2.6e-06,
    "EchoTime": 0.025,
    "EffectiveEchoSpacing": 0.000200001,
    "FlipAngle": 50,
    "ImageOrientationPatientDICOM": [
      0.999992,
      0.00067012,
      0.00404905,
      2.11009e-10,
      0.98658,
      -0.16328
    ],
    "ImageType": [
      "ORIGINAL",
      "PRIMARY",
      "M",
      "ND",
      "ECHO",
      "00",
      "MOSAIC"
    ],
    "InPlanePhaseEncodingDirectionDICOM": "ROW",
    "InstitutionName": "NIMH",
    "InstitutionalDepartmentName": "Department",
    "MRAcquisitionType": "2D",
    "MagneticFieldStrength": 6.98,
    "Manufacturer": "Siemens",
    "ManufacturersModelName": "Investigational_Device_7T",
    "Modality": "MR",
    "ParallelReductionFactorInPlane": 3,
    "PartialFourier": 1,
    "PatientPosition": "HFS",
    "PercentPhaseFOV": 100,
    "PhaseEncodingDirection": "i",
    "PhaseEncodingSteps": 94,
    "PhaseResolution": 1,
    "PixelBandwidth": 2003,
    "ProcedureStepDescription": "UserProtocols_gonzalez",
    "ProtocolName": "NIH_EPI_2.0iso_TR2_Run06",
    "PulseSequenceDetails": "%CustomerSeq%_inati_nih_epi",
    "ReceiveCoilName": "32Ch_Head_7T",
    "ReconMatrixPE": 96,
    "RepetitionTime": 2,
    "SAR": 0.0762284,
    "ScanningSequence": "EP",
    "SequenceName": "epfid2d1_96",
    "SequenceVariant": "SK",
    "SeriesDescription": "NIH_EPI_2.0iso_TR2_Run06",
    "SeriesNumber": 10,
    "ShimSetting": [
      -50,
      191,
      798,
      1012,
      28,
      665,
      75,
      -332
    ],
    "SliceThickness": 2,
    "SliceTiming": [
      1.005,
      0,
      1.0425,
      0.0375,
      1.0775,
      0.075,
      1.115,
      0.1125,
      1.1525,
      0.15,
      1.19,
      0.185,
      1.2275,
      0.2225,
      1.265,
      0.26,
      1.3025,
      0.2975,
      1.3375,
      0.335,
      1.375,
      0.3725,
      1.4125,
      0.41,
      1.45,
      0.4475,
      1.4875,
      0.4825,
      1.525,
      0.52,
      1.5625,
      0.5575,
      1.6,
      0.595,
      1.635,
      0.6325,
      1.6725,
      0.67,
      1.71,
      0.7075,
      1.7475,
      0.745,
      1.785,
      0.78,
      1.8225,
      0.8175,
      1.86,
      0.855,
      1.8975,
      0.8925,
      1.9325,
      0.93,
      1.97,
      0.9675
    ],
    "SoftwareVersions": "syngo_MR_B17",
    "SpacingBetweenSlices": 2,
    "StationName": "FMRIFD7T",
    "TaskName": "HalfFovNoTask",
    "TotalReadoutTime": 0.0190001,
    "TxRefAmp": 315,
    "dataset": "ds001555",
    "dcmmeta_affine": [
      [
        -1.9999831914901733,
        4.2201880878778297e-10,
        0.008208253420889378,
        95.76705169677734
      ],
      [
        -0.0013402394251897931,
        1.973159670829773,
        -0.32655632495880127,
        -58.3952751159668
      ],
      [
        0.008098097518086433,
        0.32655906677246094,
        1.9731431007385254,
        -41.57032775878906
      ],
      [
        0.0,
        0.0,
        0.0,
        1.0
      ]
    ],
    "dcmmeta_reorient_transform": [
      [
        0.0,
        -1.0,
        0.0,
        95.0
      ],
      [
        1.0,
        0.0,
        0.0,
        0.0
      ],
      [
        0.0,
        0.0,
        1.0,
        0.0
      ],
      [
        0.0,
        0.0,
        0.0,
        1.0
      ]
    ],
    "dcmmeta_shape": [
      96,
      96,
      54,
      164
    ],
    "dcmmeta_slice_dim": 2,
    "dcmmeta_version": 0.6,
    "global": {
      "const": {
        "AcquisitionMatrix": [
          0,
          96,
          96,
          0
        ],
        "AngioFlag": "N",
        "BitsAllocated": 16,
        "BitsStored": 12,
        "BodyPartExamined": "HEAD",
        "Columns": 768,
        "EchoNumbers": 1,
        "EchoTime": 25.0,
        "EchoTrainLength": 1,
        "FlipAngle": 50.0,
        "HighBit": 11,
        "ImageOrientationPatient": [
          0.99999157803662,
          0.00067011969073,
          0.00404904870684,
          2.110094e-10,
          0.98657984636313,
          -0.1632795356133
        ],
        "ImagePositionPatient": [
          -767.761392775,
          -792.48687407585,
          96.455670438306
        ],
        "ImageType": [
          "ORIGINAL",
          "PRIMARY",
          "M",
          "ND",
          "ECHO_00",
          "MOSAIC"
        ],
        "ImagedNucleus": "1H",
        "ImagingFrequency": 297.205066,
        "InPlanePhaseEncodingDirection": "ROW",
        "LargestImagePixelValue": 4095,
        "MRAcquisitionType": "2D",
        "MagneticFieldStrength": 6.98,
        "Manufacturer": "SIEMENS",
        "ManufacturerModelName": "Investigational_Device_7T",
        "Modality": "MR",
        "NumberOfAverages": 1.0,
        "NumberOfPhaseEncodingSteps": 94,
        "PercentPhaseFieldOfView": 100.0,
        "PercentSampling": 100.0,
        "PerformedProcedureStepStartTime": "180252.597000",
        "PhotometricInterpretation": "MONOCHROME2",
        "PixelBandwidth": 2003.0,
        "PixelRepresentation": 0,
        "PixelSpacing": [
          2.0,
          2.0
        ],
        "PositionReferenceIndicator": "",
        "ProtocolName": "NIH_EPI_2.0iso_TR2_Run06",
        "RepetitionTime": 2000.0,
        "Rows": 768,
        "SAR": 0.07622842811543,
        "SamplesPerPixel": 1,
        "ScanningSequence": "EP",
        "SequenceName": "epfid2d1_96",
        "SequenceVariant": "SK",
        "SeriesDescription": "NIH_EPI_2.0iso_TR2_Run06",
        "SeriesNumber": 10,
        "SliceLocation": -31.084389907735,
        "SliceThickness": 2.0,
        "SmallestImagePixelValue": 0,
        "SoftwareVersions": "syngo MR B17",
        "SpacingBetweenSlices": 2.0000000184226,
        "TransmitCoilName": "32Ch_Head_7T",
        "VariableFlipAngleFlag": "N",
        "WindowCenterWidthExplanation": "Algo1",
        "dBdt": 0.0
      },
      "slices": {}
    },
    "modality": "bold",
    "run_id": 7,
    "session_id": "02",
    "subject_id": "001",
    "task_id": "HalfFovNoTask",
    "time": {
      "samples": {
        "AcquisitionNumber": [
          1,
          2,
          3,
          4,
          5,
          6,
          7,
          8,
          9,
          10,
          11,
          12,
          13,
          14,
          15,
          16,
          17,
          18,
          19,
          20,
          21,
          22,
          23,
          24,
          25,
          26,
          27,
          28,
          29,
          30,
          31,
          32,
          33,
          34,
          35,
          36,
          37,
          38,
          39,
          40,
          41,
          42,
          43,
          44,
          45,
          46,
          47,
          48,
          49,
          50,
          51,
          52,
          53,
          54,
          55,
          56,
          57,
          58,
          59,
          60,
          61,
          62,
          63,
          64,
          65,
          66,
          67,
          68,
          69,
          70,
          71,
          72,
          73,
          74,
          75,
          76,
          77,
          78,
          79,
          80,
          81,
          82,
          83,
          84,
          85,
          86,
          87,
          88,
          89,
          90,
          91,
          92,
          93,
          94,
          95,
          96,
          97,
          98,
          99,
          100,
          101,
          102,
          103,
          104,
          105,
          106,
          107,
          108,
          109,
          110,
          111,
          112,
          113,
          114,
          115,
          116,
          117,
          118,
          119,
          120,
          121,
          122,
          123,
          124,
          125,
          126,
          127,
          128,
          129,
          130,
          131,
          132,
          133,
          134,
          135,
          136,
          137,
          138,
          139,
          140,
          141,
          142,
          143,
          144,
          145,
          146,
          147,
          148,
          149,
          150,
          151,
          152,
          153,
          154,
          155,
          156,
          157,
          158,
          159,
          160,
          161,
          162,
          163,
          164
        ],
        "AcquisitionTime": [
          "185942.905000",
          "185946.920000",
          "185948.927500",
          "185950.935000",
          "185952.945000",
          "185954.952500",
          "185956.960000",
          "185958.967500",
          "190000.977500",
          "190002.985000",
          "190004.992500",
          "190007.000000",
          "190009.007500",
          "190011.017500",
          "190013.025000",
          "190015.032500",
          "190017.040000",
          "190019.047500",
          "190021.057500",
          "190023.065000",
          "190025.072500",
          "190027.080000",
          "190029.090000",
          "190031.097500",
          "190033.105000",
          "190035.112500",
          "190037.120000",
          "190039.130000",
          "190041.137500",
          "190043.145000",
          "190045.152500",
          "190047.160000",
          "190049.170000",
          "190051.177500",
          "190053.185000",
          "190055.192500",
          "190057.202500",
          "190059.210000",
          "190101.217500",
          "190103.225000",
          "190105.232500",
          "190107.242500",
          "190109.250000",
          "190111.257500",
          "190113.265000",
          "190115.272500",
          "190117.282500",
          "190119.290000",
          "190121.297500",
          "190123.305000",
          "190125.315000",
          "190127.322500",
          "190129.330000",
          "190131.337500",
          "190133.345000",
          "190135.355000",
          "190137.362500",
          "190139.370000",
          "190141.377500",
          "190143.385000",
          "190145.395000",
          "190147.402500",
          "190149.410000",
          "190151.417500",
          "190153.425000",
          "190155.435000",
          "190157.442500",
          "190159.450000",
          "190201.457500",
          "190203.467500",
          "190205.475000",
          "190207.482500",
          "190209.490000",
          "190211.497500",
          "190213.507500",
          "190215.515000",
          "190217.522500",
          "190219.530000",
          "190221.537500",
          "190223.547500",
          "190225.555000",
          "190227.562500",
          "190229.570000",
          "190231.580000",
          "190233.587500",
          "190235.595000",
          "190237.602500",
          "190239.610000",
          "190241.620000",
          "190243.627500",
          "190245.635000",
          "190247.642500",
          "190249.650000",
          "190251.660000",
          "190253.667500",
          "190255.675000",
          "190257.682500",
          "190259.692500",
          "190301.700000",
          "190303.707500",
          "190305.715000",
          "190307.722500",
          "190309.732500",
          "190311.740000",
          "190313.747500",
          "190315.755000",
          "190317.762500",
          "190319.772500",
          "190321.780000",
          "190323.787500",
          "190325.795000",
          "190327.802500",
          "190329.812500",
          "190331.820000",
          "190333.827500",
          "190335.835000",
          "190337.845000",
          "190339.852500",
          "190341.860000",
          "190343.867500",
          "190345.875000",
          "190347.885000",
          "190349.892500",
          "190351.900000",
          "190353.907500",
          "190355.915000",
          "190357.925000",
          "190359.932500",
          "190401.940000",
          "190403.947500",
          "190405.957500",
          "190407.965000",
          "190409.972500",
          "190411.980000",
          "190413.987500",
          "190415.997500",
          "190418.005000",
          "190420.012500",
          "190422.020000",
          "190424.027500",
          "190426.037500",
          "190428.045000",
          "190430.052500",
          "190432.060000",
          "190434.070000",
          "190436.077500",
          "190438.085000",
          "190440.092500",
          "190442.100000",
          "190444.110000",
          "190446.117500",
          "190448.125000",
          "190450.132500",
          "190452.140000",
          "190454.150000",
          "190456.157500",
          "190458.165000",
          "190500.172500",
          "190502.180000",
          "190504.190000",
          "190506.197500",
          "190508.205000",
          "190510.212500",
          "190512.222500"
        ],
        "ContentTime": [
          "190033.222000",
          "190033.238000",
          "190033.238000",
          "190033.238000",
          "190033.238000",
          "190033.238000",
          "190033.254000",
          "190033.254000",
          "190033.254000",
          "190033.254000",
          "190033.269000",
          "190033.269000",
          "190033.269000",
          "190033.269000",
          "190033.269000",
          "190033.285000",
          "190033.285000",
          "190033.285000",
          "190033.285000",
          "190033.285000",
          "190033.300000",
          "190033.300000",
          "190033.300000",
          "190033.300000",
          "190113.222000",
          "190113.222000",
          "190113.222000",
          "190113.222000",
          "190113.238000",
          "190113.238000",
          "190113.238000",
          "190113.238000",
          "190113.238000",
          "190113.254000",
          "190113.254000",
          "190113.254000",
          "190113.254000",
          "190113.254000",
          "190113.269000",
          "190113.269000",
          "190113.269000",
          "190113.269000",
          "190113.269000",
          "190113.269000",
          "190153.222000",
          "190153.222000",
          "190153.222000",
          "190153.238000",
          "190153.238000",
          "190153.238000",
          "190153.238000",
          "190153.238000",
          "190153.254000",
          "190153.254000",
          "190153.254000",
          "190153.254000",
          "190153.254000",
          "190153.254000",
          "190153.269000",
          "190153.269000",
          "190153.269000",
          "190153.269000",
          "190153.285000",
          "190153.285000",
          "190233.222000",
          "190233.222000",
          "190233.222000",
          "190233.222000",
          "190233.222000",
          "190233.238000",
          "190233.238000",
          "190233.238000",
          "190233.238000",
          "190233.238000",
          "190233.238000",
          "190233.238000",
          "190233.254000",
          "190233.254000",
          "190233.254000",
          "190233.254000",
          "190233.254000",
          "190233.269000",
          "190233.269000",
          "190233.269000",
          "190313.222000",
          "190313.222000",
          "190313.238000",
          "190313.238000",
          "190313.238000",
          "190313.238000",
          "190313.238000",
          "190313.238000",
          "190313.238000",
          "190313.254000",
          "190313.254000",
          "190313.254000",
          "190313.254000",
          "190313.254000",
          "190313.254000",
          "190313.269000",
          "190313.269000",
          "190313.269000",
          "190313.269000",
          "190313.269000",
          "190353.222000",
          "190353.222000",
          "190353.222000",
          "190353.222000",
          "190353.222000",
          "190353.238000",
          "190353.238000",
          "190353.238000",
          "190353.238000",
          "190353.238000",
          "190353.238000",
          "190353.238000",
          "190353.254000",
          "190353.254000",
          "190353.254000",
          "190353.254000",
          "190353.254000",
          "190353.254000",
          "190353.269000",
          "190353.269000",
          "190433.222000",
          "190433.222000",
          "190433.222000",
          "190433.222000",
          "190433.222000",
          "190433.238000",
          "190433.238000",
          "190433.238000",
          "190433.238000",
          "190433.238000",
          "190433.254000",
          "190433.254000",
          "190433.254000",
          "190433.269000",
          "190433.269000",
          "190433.269000",
          "190433.269000",
          "190433.285000",
          "190433.285000",
          "190433.285000",
          "190513.019000",
          "190513.019000",
          "190513.019000",
          "190513.035000",
          "190513.035000",
          "190513.035000",
          "190513.035000",
          "190513.035000",
          "190513.035000",
          "190513.050000",
          "190513.050000",
          "190513.050000",
          "190513.050000",
          "190513.066000",
          "190513.066000",
          "190513.066000",
          "190513.066000",
          "190513.066000",
          "190513.066000",
          "190513.066000"
        ],
        "InstanceCreationTime": [
          "190033.222000",
          "190033.238000",
          "190033.238000",
          "190033.238000",
          "190033.238000",
          "190033.238000",
          "190033.254000",
          "190033.254000",
          "190033.254000",
          "190033.254000",
          "190033.269000",
          "190033.269000",
          "190033.269000",
          "190033.269000",
          "190033.269000",
          "190033.285000",
          "190033.285000",
          "190033.285000",
          "190033.285000",
          "190033.285000",
          "190033.300000",
          "190033.300000",
          "190033.300000",
          "190033.300000",
          "190113.222000",
          "190113.222000",
          "190113.222000",
          "190113.222000",
          "190113.238000",
          "190113.238000",
          "190113.238000",
          "190113.238000",
          "190113.238000",
          "190113.254000",
          "190113.254000",
          "190113.254000",
          "190113.254000",
          "190113.254000",
          "190113.269000",
          "190113.269000",
          "190113.269000",
          "190113.269000",
          "190113.269000",
          "190113.269000",
          "190153.222000",
          "190153.222000",
          "190153.222000",
          "190153.238000",
          "190153.238000",
          "190153.238000",
          "190153.238000",
          "190153.238000",
          "190153.254000",
          "190153.254000",
          "190153.254000",
          "190153.254000",
          "190153.254000",
          "190153.254000",
          "190153.269000",
          "190153.269000",
          "190153.269000",
          "190153.269000",
          "190153.285000",
          "190153.285000",
          "190233.222000",
          "190233.222000",
          "190233.222000",
          "190233.222000",
          "190233.222000",
          "190233.238000",
          "190233.238000",
          "190233.238000",
          "190233.238000",
          "190233.238000",
          "190233.238000",
          "190233.238000",
          "190233.254000",
          "190233.254000",
          "190233.254000",
          "190233.254000",
          "190233.254000",
          "190233.269000",
          "190233.269000",
          "190233.269000",
          "190313.222000",
          "190313.222000",
          "190313.238000",
          "190313.238000",
          "190313.238000",
          "190313.238000",
          "190313.238000",
          "190313.238000",
          "190313.238000",
          "190313.254000",
          "190313.254000",
          "190313.254000",
          "190313.254000",
          "190313.254000",
          "190313.254000",
          "190313.269000",
          "190313.269000",
          "190313.269000",
          "190313.269000",
          "190313.269000",
          "190353.222000",
          "190353.222000",
          "190353.222000",
          "190353.222000",
          "190353.222000",
          "190353.238000",
          "190353.238000",
          "190353.238000",
          "190353.238000",
          "190353.238000",
          "190353.238000",
          "190353.238000",
          "190353.254000",
          "190353.254000",
          "190353.254000",
          "190353.254000",
          "190353.254000",
          "190353.254000",
          "190353.269000",
          "190353.269000",
          "190433.222000",
          "190433.222000",
          "190433.222000",
          "190433.222000",
          "190433.222000",
          "190433.238000",
          "190433.238000",
          "190433.238000",
          "190433.238000",
          "190433.238000",
          "190433.254000",
          "190433.254000",
          "190433.254000",
          "190433.269000",
          "190433.269000",
          "190433.269000",
          "190433.269000",
          "190433.285000",
          "190433.285000",
          "190433.285000",
          "190513.019000",
          "190513.019000",
          "190513.019000",
          "190513.035000",
          "190513.035000",
          "190513.035000",
          "190513.035000",
          "190513.035000",
          "190513.035000",
          "190513.050000",
          "190513.050000",
          "190513.050000",
          "190513.050000",
          "190513.066000",
          "190513.066000",
          "190513.066000",
          "190513.066000",
          "190513.066000",
          "190513.066000",
          "190513.066000"
        ],
        "InstanceNumber": [
          1,
          2,
          3,
          4,
          5,
          6,
          7,
          8,
          9,
          10,
          11,
          12,
          13,
          14,
          15,
          16,
          17,
          18,
          19,
          20,
          21,
          22,
          23,
          24,
          25,
          26,
          27,
          28,
          29,
          30,
          31,
          32,
          33,
          34,
          35,
          36,
          37,
          38,
          39,
          40,
          41,
          42,
          43,
          44,
          45,
          46,
          47,
          48,
          49,
          50,
          51,
          52,
          53,
          54,
          55,
          56,
          57,
          58,
          59,
          60,
          61,
          62,
          63,
          64,
          65,
          66,
          67,
          68,
          69,
          70,
          71,
          72,
          73,
          74,
          75,
          76,
          77,
          78,
          79,
          80,
          81,
          82,
          83,
          84,
          85,
          86,
          87,
          88,
          89,
          90,
          91,
          92,
          93,
          94,
          95,
          96,
          97,
          98,
          99,
          100,
          101,
          102,
          103,
          104,
          105,
          106,
          107,
          108,
          109,
          110,
          111,
          112,
          113,
          114,
          115,
          116,
          117,
          118,
          119,
          120,
          121,
          122,
          123,
          124,
          125,
          126,
          127,
          128,
          129,
          130,
          131,
          132,
          133,
          134,
          135,
          136,
          137,
          138,
          139,
          140,
          141,
          142,
          143,
          144,
          145,
          146,
          147,
          148,
          149,
          150,
          151,
          152,
          153,
          154,
          155,
          156,
          157,
          158,
          159,
          160,
          161,
          162,
          163,
          164
        ],
        "WindowCenter": [
          1185.0,
          1185.0,
          1185.0,
          1185.0,
          1183.0,
          1182.0,
          1182.0,
          1183.0,
          1180.0,
          1180.0,
          1181.0,
          1181.0,
          1181.0,
          1181.0,
          1180.0,
          1180.0,
          1182.0,
          1183.0,
          1181.0,
          1181.0,
          1182.0,
          1182.0,
          1180.0,
          1181.0,
          1182.0,
          1183.0,
          1183.0,
          1183.0,
          1183.0,
          1185.0,
          1186.0,
          1184.0,
          1182.0,
          1183.0,
          1184.0,
          1183.0,
          1182.0,
          1181.0,
          1181.0,
          1182.0,
          1183.0,
          1182.0,
          1181.0,
          1181.0,
          1181.0,
          1180.0,
          1181.0,
          1181.0,
          1183.0,
          1184.0,
          1184.0,
          1183.0,
          1181.0,
          1181.0,
          1182.0,
          1181.0,
          1182.0,
          1181.0,
          1181.0,
          1183.0,
          1183.0,
          1183.0,
          1183.0,
          1183.0,
          1183.0,
          1183.0,
          1183.0,
          1182.0,
          1182.0,
          1182.0,
          1182.0,
          1181.0,
          1181.0,
          1180.0,
          1180.0,
          1180.0,
          1180.0,
          1180.0,
          1181.0,
          1182.0,
          1182.0,
          1182.0,
          1182.0,
          1181.0,
          1180.0,
          1182.0,
          1183.0,
          1185.0,
          1186.0,
          1183.0,
          1181.0,
          1182.0,
          1184.0,
          1185.0,
          1185.0,
          1182.0,
          1181.0,
          1182.0,
          1183.0,
          1183.0,
          1183.0,
          1184.0,
          1183.0,
          1184.0,
          1185.0,
          1185.0,
          1184.0,
          1183.0,
          1183.0,
          1182.0,
          1182.0,
          1185.0,
          1186.0,
          1186.0,
          1184.0,
          1181.0,
          1181.0,
          1183.0,
          1183.0,
          1183.0,
          1183.0,
          1182.0,
          1182.0,
          1183.0,
          1183.0,
          1183.0,
          1184.0,
          1184.0,
          1185.0,
          1185.0,
          1183.0,
          1183.0,
          1184.0,
          1185.0,
          1184.0,
          1183.0,
          1183.0,
          1184.0,
          1185.0,
          1185.0,
          1186.0,
          1184.0,
          1185.0,
          1185.0,
          1189.0,
          1189.0,
          1185.0,
          1180.0,
          1181.0,
          1184.0,
          1186.0,
          1185.0,
          1184.0,
          1180.0,
          1180.0,
          1180.0,
          1181.0,
          1183.0,
          1181.0,
          1180.0,
          1178.0,
          1182.0,
          1183.0,
          1185.0
        ],
        "WindowWidth": [
          2861.0,
          2861.0,
          2860.0,
          2859.0,
          2853.0,
          2852.0,
          2852.0,
          2851.0,
          2848.0,
          2848.0,
          2849.0,
          2849.0,
          2850.0,
          2850.0,
          2848.0,
          2849.0,
          2851.0,
          2852.0,
          2849.0,
          2853.0,
          2856.0,
          2853.0,
          2849.0,
          2852.0,
          2854.0,
          2855.0,
          2856.0,
          2853.0,
          2855.0,
          2864.0,
          2864.0,
          2858.0,
          2855.0,
          2856.0,
          2859.0,
          2856.0,
          2853.0,
          2851.0,
          2850.0,
          2852.0,
          2854.0,
          2854.0,
          2850.0,
          2849.0,
          2848.0,
          2848.0,
          2848.0,
          2850.0,
          2855.0,
          2857.0,
          2855.0,
          2853.0,
          2849.0,
          2852.0,
          2852.0,
          2851.0,
          2848.0,
          2851.0,
          2850.0,
          2852.0,
          2854.0,
          2854.0,
          2855.0,
          2856.0,
          2855.0,
          2855.0,
          2853.0,
          2851.0,
          2851.0,
          2854.0,
          2853.0,
          2852.0,
          2849.0,
          2849.0,
          2847.0,
          2848.0,
          2849.0,
          2849.0,
          2850.0,
          2853.0,
          2857.0,
          2856.0,
          2854.0,
          2851.0,
          2849.0,
          2853.0,
          2857.0,
          2862.0,
          2862.0,
          2856.0,
          2852.0,
          2854.0,
          2860.0,
          2862.0,
          2858.0,
          2851.0,
          2851.0,
          2852.0,
          2851.0,
          2850.0,
          2852.0,
          2853.0,
          2850.0,
          2853.0,
          2857.0,
          2857.0,
          2855.0,
          2853.0,
          2851.0,
          2849.0,
          2852.0,
          2859.0,
          2863.0,
          2858.0,
          2851.0,
          2846.0,
          2847.0,
          2852.0,
          2848.0,
          2847.0,
          2849.0,
          2847.0,
          2851.0,
          2853.0,
          2854.0,
          2852.0,
          2854.0,
          2857.0,
          2859.0,
