{
  "aor": 0.0015817073170731706,
  "aqi": 0.0060605604878048785,
  "bids_meta": {
    "AcquisitionMatrixPE": 96,
    "AcquisitionNumber": 1,
    "AcquisitionTime": "18:38:58.357500",
    "BandwidthPerPixelPhaseEncode": 52.083,
    "BaseResolution": 96,
    "BodyPartExamined": "HEAD",
    "ConversionSoftware": "dcm2niix",
    "ConversionSoftwareVersion": "v1.0.20180622 GCC6.3.0",
    "DerivedVendorReportedEchoSpacing": 0.000600004,
    "DeviceSerialNumber": "18926",
    "DwellTime": 2.6e-06,
    "EchoTime": 0.025,
    "EffectiveEchoSpacing": 0.000200001,
    "FlipAngle": 50,
    "ImageOrientationPatientDICOM": [
      0.999992,
      0.00067012,
      0.00404905,
      2.11009e-10,
      0.98658,
      -0.16328
    ],
    "ImageType": [
      "ORIGINAL",
      "PRIMARY",
      "M",
      "ND",
      "ECHO",
      "00",
      "MOSAIC"
    ],
    "InPlanePhaseEncodingDirectionDICOM": "ROW",
    "InstitutionName": "NIMH",
    "InstitutionalDepartmentName": "Department",
    "MRAcquisitionType": "2D",
    "MagneticFieldStrength": 6.98,
    "Manufacturer": "Siemens",
    "ManufacturersModelName": "Investigational_Device_7T",
    "Modality": "MR",
    "ParallelReductionFactorInPlane": 3,
    "PartialFourier": 1,
    "PatientPosition": "HFS",
    "PercentPhaseFOV": 100,
    "PhaseEncodingDirection": "i",
    "PhaseEncodingSteps": 94,
    "PhaseResolution": 1,
    "PixelBandwidth": 2003,
    "ProcedureStepDescription": "UserProtocols_gonzalez",
    "ProtocolName": "NIH_EPI_2.0iso_TR2_Run03",
    "PulseSequenceDetails": "%CustomerSeq%_inati_nih_epi",
    "ReceiveCoilName": "32Ch_Head_7T",
    "ReconMatrixPE": 96,
    "RepetitionTime": 2,
    "SAR": 0.0762284,
    "ScanningSequence": "EP",
    "SequenceName": "epfid2d1_96",
    "SequenceVariant": "SK",
    "SeriesDescription": "NIH_EPI_2.0iso_TR2_Run03",
    "SeriesNumber": 7,
    "ShimSetting": [
      -50,
      191,
      798,
      1012,
      28,
      665,
      75,
      -332
    ],
    "SliceThickness": 2,
    "SliceTiming": [
      1.005,
      0,
      1.0425,
      0.0375,
      1.08,
      0.075,
      1.115,
      0.1125,
      1.1525,
      0.15,
      1.19,
      0.1875,
      1.2275,
      0.2225,
      1.265,
      0.26,
      1.3025,
      0.2975,
      1.34,
      0.335,
      1.375,
      0.3725,
      1.4125,
      0.41,
      1.45,
      0.4475,
      1.4875,
      0.485,
      1.525,
      0.52,
      1.5625,
      0.5575,
      1.6,
      0.595,
      1.6375,
      0.6325,
      1.6725,
      0.67,
      1.71,
      0.7075,
      1.7475,
      0.745,
      1.785,
      0.7825,
      1.8225,
      0.8175,
      1.86,
      0.855,
      1.8975,
      0.8925,
      1.935,
      0.93,
      1.97,
      0.9675
    ],
    "SoftwareVersions": "syngo_MR_B17",
    "SpacingBetweenSlices": 2,
    "StationName": "FMRIFD7T",
    "TaskName": "HalfFovNoTask",
    "TotalReadoutTime": 0.0190001,
    "TxRefAmp": 315,
    "dataset": "ds001555",
    "dcmmeta_affine": [
      [
        -1.9999831914901733,
        4.2201880878778297e-10,
        0.008208253420889378,
        95.76705169677734
      ],
      [
        -0.0013402394251897931,
        1.973159670829773,
        -0.32655632495880127,
        -58.3952751159668
      ],
      [
        0.008098097518086433,
        0.32655906677246094,
        1.9731431007385254,
        -41.57032775878906
      ],
      [
        0.0,
        0.0,
        0.0,
        1.0
      ]
    ],
    "dcmmeta_reorient_transform": [
      [
        0.0,
        -1.0,
        0.0,
        95.0
      ],
      [
        1.0,
        0.0,
        0.0,
        0.0
      ],
      [
        0.0,
        0.0,
        1.0,
        0.0
      ],
      [
        0.0,
        0.0,
        0.0,
        1.0
      ]
    ],
    "dcmmeta_shape": [
      96,
      96,
      54,
      164
    ],
    "dcmmeta_slice_dim": 2,
    "dcmmeta_version": 0.6,
    "global": {
      "const": {
        "AcquisitionMatrix": [
          0,
          96,
          96,
          0
        ],
        "AngioFlag": "N",
        "BitsAllocated": 16,
        "BitsStored": 12,
        "BodyPartExamined": "HEAD",
        "Columns": 768,
        "EchoNumbers": 1,
        "EchoTime": 25.0,
        "EchoTrainLength": 1,
        "FlipAngle": 50.0,
        "HighBit": 11,
        "ImageOrientationPatient": [
          0.99999157803662,
          0.00067011969073,
          0.00404904870684,
          2.110094e-10,
          0.98657984636313,
          -0.1632795356133
        ],
        "ImagePositionPatient": [
          -767.761392775,
          -792.48687407585,
          96.455670438306
        ],
        "ImageType": [
          "ORIGINAL",
          "PRIMARY",
          "M",
          "ND",
          "ECHO_00",
          "MOSAIC"
        ],
        "ImagedNucleus": "1H",
        "ImagingFrequency": 297.204987,
        "InPlanePhaseEncodingDirection": "ROW",
        "LargestImagePixelValue": 4095,
        "MRAcquisitionType": "2D",
        "MagneticFieldStrength": 6.98,
        "Manufacturer": "SIEMENS",
        "ManufacturerModelName": "Investigational_Device_7T",
        "Modality": "MR",
        "NumberOfAverages": 1.0,
        "NumberOfPhaseEncodingSteps": 94,
        "PercentPhaseFieldOfView": 100.0,
        "PercentSampling": 100.0,
        "PerformedProcedureStepStartTime": "180252.597000",
        "PhotometricInterpretation": "MONOCHROME2",
        "PixelBandwidth": 2003.0,
        "PixelRepresentation": 0,
        "PixelSpacing": [
          2.0,
          2.0
        ],
        "PositionReferenceIndicator": "",
        "ProtocolName": "NIH_EPI_2.0iso_TR2_Run03",
        "RepetitionTime": 2000.0,
        "Rows": 768,
        "SAR": 0.07622842811543,
        "SamplesPerPixel": 1,
        "ScanningSequence": "EP",
        "SequenceName": "epfid2d1_96",
        "SequenceVariant": "SK",
        "SeriesDescription": "NIH_EPI_2.0iso_TR2_Run03",
        "SeriesNumber": 7,
        "SliceLocation": -31.084389907735,
        "SliceThickness": 2.0,
        "SmallestImagePixelValue": 0,
        "SoftwareVersions": "syngo MR B17",
        "SpacingBetweenSlices": 2.0000000184226,
        "TransmitCoilName": "32Ch_Head_7T",
        "VariableFlipAngleFlag": "N",
        "WindowCenterWidthExplanation": "Algo1",
        "dBdt": 0.0
      },
      "slices": {}
    },
    "modality": "bold",
    "run_id": 4,
    "session_id": "02",
    "subject_id": "001",
    "task_id": "HalfFovNoTask",
    "time": {
      "samples": {
        "AcquisitionNumber": [
          1,
          2,
          3,
          4,
          5,
          6,
          7,
          8,
          9,
          10,
          11,
          12,
          13,
          14,
          15,
          16,
          17,
          18,
          19,
          20,
          21,
          22,
          23,
          24,
          25,
          26,
          27,
          28,
          29,
          30,
          31,
          32,
          33,
          34,
          35,
          36,
          37,
          38,
          39,
          40,
          41,
          42,
          43,
          44,
          45,
          46,
          47,
          48,
          49,
          50,
          51,
          52,
          53,
          54,
          55,
          56,
          57,
          58,
          59,
          60,
          61,
          62,
          63,
          64,
          65,
          66,
          67,
          68,
          69,
          70,
          71,
          72,
          73,
          74,
          75,
          76,
          77,
          78,
          79,
          80,
          81,
          82,
          83,
          84,
          85,
          86,
          87,
          88,
          89,
          90,
          91,
          92,
          93,
          94,
          95,
          96,
          97,
          98,
          99,
          100,
          101,
          102,
          103,
          104,
          105,
          106,
          107,
          108,
          109,
          110,
          111,
          112,
          113,
          114,
          115,
          116,
          117,
          118,
          119,
          120,
          121,
          122,
          123,
          124,
          125,
          126,
          127,
          128,
          129,
          130,
          131,
          132,
          133,
          134,
          135,
          136,
          137,
          138,
          139,
          140,
          141,
          142,
          143,
          144,
          145,
          146,
          147,
          148,
          149,
          150,
          151,
          152,
          153,
          154,
          155,
          156,
          157,
          158,
          159,
          160,
          161,
          162,
          163,
          164
        ],
        "AcquisitionTime": [
          "183858.357500",
          "183902.372500",
          "183904.380000",
          "183906.390000",
          "183908.397500",
          "183910.405000",
          "183912.412500",
          "183914.420000",
          "183916.430000",
          "183918.437500",
          "183920.445000",
          "183922.452500",
          "183924.462500",
          "183926.470000",
          "183928.477500",
          "183930.485000",
          "183932.492500",
          "183934.502500",
          "183936.510000",
          "183938.517500",
          "183940.525000",
          "183942.532500",
          "183944.542500",
          "183946.550000",
          "183948.557500",
          "183950.565000",
          "183952.575000",
          "183954.582500",
          "183956.590000",
          "183958.597500",
          "184000.605000",
          "184002.615000",
          "184004.622500",
          "184006.630000",
          "184008.637500",
          "184010.645000",
          "184012.655000",
          "184014.662500",
          "184016.670000",
          "184018.677500",
          "184020.685000",
          "184022.695000",
          "184024.702500",
          "184026.710000",
          "184028.717500",
          "184030.727500",
          "184032.735000",
          "184034.742500",
          "184036.750000",
          "184038.757500",
          "184040.767500",
          "184042.775000",
          "184044.782500",
          "184046.790000",
          "184048.797500",
          "184050.807500",
          "184052.815000",
          "184054.822500",
          "184056.830000",
          "184058.840000",
          "184100.847500",
          "184102.855000",
          "184104.862500",
          "184106.870000",
          "184108.880000",
          "184110.887500",
          "184112.895000",
          "184114.902500",
          "184116.910000",
          "184118.920000",
          "184120.927500",
          "184122.935000",
          "184124.942500",
          "184126.952500",
          "184128.960000",
          "184130.967500",
          "184132.975000",
          "184134.982500",
          "184136.992500",
          "184139.000000",
          "184141.007500",
          "184143.015000",
          "184145.022500",
          "184147.032500",
          "184149.040000",
          "184151.047500",
          "184153.055000",
          "184155.062500",
          "184157.072500",
          "184159.080000",
          "184201.087500",
          "184203.095000",
          "184205.105000",
          "184207.112500",
          "184209.120000",
          "184211.127500",
          "184213.135000",
          "184215.145000",
          "184217.152500",
          "184219.160000",
          "184221.167500",
          "184223.175000",
          "184225.185000",
          "184227.192500",
          "184229.200000",
          "184231.207500",
          "184233.217500",
          "184235.225000",
          "184237.232500",
          "184239.240000",
          "184241.247500",
          "184243.257500",
          "184245.265000",
          "184247.272500",
          "184249.280000",
          "184251.287500",
          "184253.297500",
          "184255.305000",
          "184257.312500",
          "184259.320000",
          "184301.330000",
          "184303.337500",
          "184305.345000",
          "184307.352500",
          "184309.360000",
          "184311.370000",
          "184313.377500",
          "184315.385000",
          "184317.392500",
          "184319.400000",
          "184321.410000",
          "184323.417500",
          "184325.425000",
          "184327.432500",
          "184329.440000",
          "184331.450000",
          "184333.457500",
          "184335.465000",
          "184337.472500",
          "184339.482500",
          "184341.490000",
          "184343.497500",
          "184345.505000",
          "184347.512500",
          "184349.522500",
          "184351.530000",
          "184353.537500",
          "184355.545000",
          "184357.552500",
          "184359.562500",
          "184401.570000",
          "184403.577500",
          "184405.585000",
          "184407.595000",
          "184409.602500",
          "184411.610000",
          "184413.617500",
          "184415.625000",
          "184417.635000",
          "184419.642500",
          "184421.650000",
          "184423.657500",
          "184425.665000",
          "184427.675000"
        ],
        "ContentTime": [
          "183953.238000",
          "183953.238000",
          "183953.238000",
          "183953.238000",
          "183953.238000",
          "183953.238000",
          "183953.254000",
          "183953.254000",
          "183953.254000",
          "183953.254000",
          "183953.254000",
          "183953.254000",
          "183953.254000",
          "183953.269000",
          "183953.269000",
          "183953.269000",
          "183953.269000",
          "183953.269000",
          "183953.269000",
          "183953.269000",
          "183953.285000",
          "183953.285000",
          "183953.285000",
          "183953.285000",
          "183953.285000",
          "183953.285000",
          "184033.222000",
          "184033.222000",
          "184033.222000",
          "184033.222000",
          "184033.238000",
          "184033.238000",
          "184033.238000",
          "184033.238000",
          "184033.254000",
          "184033.254000",
          "184033.254000",
          "184033.254000",
          "184033.254000",
          "184033.254000",
          "184033.269000",
          "184033.269000",
          "184033.269000",
          "184033.269000",
          "184033.269000",
          "184033.269000",
          "184113.222000",
          "184113.222000",
          "184113.238000",
          "184113.238000",
          "184113.238000",
          "184113.238000",
          "184113.238000",
          "184113.238000",
          "184113.254000",
          "184113.254000",
          "184113.254000",
          "184113.254000",
          "184113.269000",
          "184113.269000",
          "184113.269000",
          "184113.269000",
          "184113.269000",
          "184113.269000",
          "184113.285000",
          "184113.285000",
          "184153.222000",
          "184153.222000",
          "184153.238000",
          "184153.238000",
          "184153.238000",
          "184153.238000",
          "184153.238000",
          "184153.238000",
          "184153.238000",
          "184153.254000",
          "184153.254000",
          "184153.254000",
          "184153.269000",
          "184153.269000",
          "184153.269000",
          "184153.269000",
          "184153.269000",
          "184153.269000",
          "184153.285000",
          "184153.300000",
          "184233.222000",
          "184233.222000",
          "184233.238000",
          "184233.238000",
          "184233.238000",
          "184233.238000",
          "184233.254000",
          "184233.254000",
          "184233.254000",
          "184233.254000",
          "184233.254000",
          "184233.254000",
          "184233.254000",
          "184233.269000",
          "184233.269000",
          "184233.269000",
          "184233.269000",
          "184233.269000",
          "184233.269000",
          "184233.285000",
          "184313.222000",
          "184313.222000",
          "184313.238000",
          "184313.238000",
          "184313.238000",
          "184313.238000",
          "184313.238000",
          "184313.238000",
          "184313.238000",
          "184313.254000",
          "184313.254000",
          "184313.254000",
          "184313.254000",
          "184313.269000",
          "184313.285000",
          "184313.285000",
          "184313.285000",
          "184313.300000",
          "184313.300000",
          "184313.300000",
          "184353.222000",
          "184353.238000",
          "184353.238000",
          "184353.238000",
          "184353.238000",
          "184353.238000",
          "184353.238000",
          "184353.238000",
          "184353.254000",
          "184353.254000",
          "184353.254000",
          "184353.254000",
          "184353.254000",
          "184353.254000",
          "184353.254000",
          "184353.269000",
          "184353.269000",
          "184353.269000",
          "184353.269000",
          "184353.269000",
          "184428.738000",
          "184428.738000",
          "184428.738000",
          "184428.754000",
          "184428.754000",
          "184428.754000",
          "184428.754000",
          "184428.754000",
          "184428.754000",
          "184428.769000",
          "184428.769000",
          "184428.769000",
          "184428.769000",
          "184428.769000",
          "184428.769000",
          "184428.785000",
          "184428.785000",
          "184428.785000"
        ],
        "InstanceCreationTime": [
          "183953.238000",
          "183953.238000",
          "183953.238000",
          "183953.238000",
          "183953.238000",
          "183953.238000",
          "183953.254000",
          "183953.254000",
          "183953.254000",
          "183953.254000",
          "183953.254000",
          "183953.254000",
          "183953.254000",
          "183953.269000",
          "183953.269000",
          "183953.269000",
          "183953.269000",
          "183953.269000",
          "183953.269000",
          "183953.269000",
          "183953.285000",
          "183953.285000",
          "183953.285000",
          "183953.285000",
          "183953.285000",
          "183953.285000",
          "184033.222000",
          "184033.222000",
          "184033.222000",
          "184033.222000",
          "184033.238000",
          "184033.238000",
          "184033.238000",
          "184033.238000",
          "184033.254000",
          "184033.254000",
          "184033.254000",
          "184033.254000",
          "184033.254000",
          "184033.254000",
          "184033.269000",
          "184033.269000",
          "184033.269000",
          "184033.269000",
          "184033.269000",
          "184033.269000",
          "184113.222000",
          "184113.222000",
          "184113.238000",
          "184113.238000",
          "184113.238000",
          "184113.238000",
          "184113.238000",
          "184113.238000",
          "184113.254000",
          "184113.254000",
          "184113.254000",
          "184113.254000",
          "184113.269000",
          "184113.269000",
          "184113.269000",
          "184113.269000",
          "184113.269000",
          "184113.269000",
          "184113.285000",
          "184113.285000",
          "184153.222000",
          "184153.222000",
          "184153.238000",
          "184153.238000",
          "184153.238000",
          "184153.238000",
          "184153.238000",
          "184153.238000",
          "184153.238000",
          "184153.254000",
          "184153.254000",
          "184153.254000",
          "184153.269000",
          "184153.269000",
          "184153.269000",
          "184153.269000",
          "184153.269000",
          "184153.269000",
          "184153.285000",
          "184153.300000",
          "184233.222000",
          "184233.222000",
          "184233.238000",
          "184233.238000",
          "184233.238000",
          "184233.238000",
          "184233.254000",
          "184233.254000",
          "184233.254000",
          "184233.254000",
          "184233.254000",
          "184233.254000",
          "184233.254000",
          "184233.269000",
          "184233.269000",
          "184233.269000",
          "184233.269000",
          "184233.269000",
          "184233.269000",
          "184233.285000",
          "184313.222000",
          "184313.222000",
          "184313.238000",
          "184313.238000",
          "184313.238000",
          "184313.238000",
          "184313.238000",
          "184313.238000",
          "184313.238000",
          "184313.254000",
          "184313.254000",
          "184313.254000",
          "184313.254000",
          "184313.269000",
          "184313.285000",
          "184313.285000",
          "184313.285000",
          "184313.300000",
          "184313.300000",
          "184313.300000",
          "184353.222000",
          "184353.238000",
          "184353.238000",
          "184353.238000",
          "184353.238000",
          "184353.238000",
          "184353.238000",
          "184353.238000",
          "184353.254000",
          "184353.254000",
          "184353.254000",
          "184353.254000",
          "184353.254000",
          "184353.254000",
          "184353.254000",
          "184353.269000",
          "184353.269000",
          "184353.269000",
          "184353.269000",
          "184353.269000",
          "184428.738000",
          "184428.738000",
          "184428.738000",
          "184428.754000",
          "184428.754000",
          "184428.754000",
          "184428.754000",
          "184428.754000",
          "184428.754000",
          "184428.769000",
          "184428.769000",
          "184428.769000",
          "184428.769000",
          "184428.769000",
          "184428.769000",
          "184428.785000",
          "184428.785000",
          "184428.785000"
        ],
        "InstanceNumber": [
          1,
          2,
          3,
          4,
          5,
          6,
          7,
          8,
          9,
          10,
          11,
          12,
          13,
          14,
          15,
          16,
          17,
          18,
          19,
          20,
          21,
          22,
          23,
          24,
          25,
          26,
          27,
          28,
          29,
          30,
          31,
          32,
          33,
          34,
          35,
          36,
          37,
          38,
          39,
          40,
          41,
          42,
          43,
          44,
          45,
          46,
          47,
          48,
          49,
          50,
          51,
          52,
          53,
          54,
          55,
          56,
          57,
          58,
          59,
          60,
          61,
          62,
          63,
          64,
          65,
          66,
          67,
          68,
          69,
          70,
          71,
          72,
          73,
          74,
          75,
          76,
          77,
          78,
          79,
          80,
          81,
          82,
          83,
          84,
          85,
          86,
          87,
          88,
          89,
          90,
          91,
          92,
          93,
          94,
          95,
          96,
          97,
          98,
          99,
          100,
          101,
          102,
          103,
          104,
          105,
          106,
          107,
          108,
          109,
          110,
          111,
          112,
          113,
          114,
          115,
          116,
          117,
          118,
          119,
          120,
          121,
          122,
          123,
          124,
          125,
          126,
          127,
          128,
          129,
          130,
          131,
          132,
          133,
          134,
          135,
          136,
          137,
          138,
          139,
          140,
          141,
          142,
          143,
          144,
          145,
          146,
          147,
          148,
          149,
          150,
          151,
          152,
          153,
          154,
          155,
          156,
          157,
          158,
          159,
          160,
          161,
          162,
          163,
          164
        ],
        "WindowCenter": [
          1176.0,
          1174.0,
          1174.0,
          1175.0,
          1175.0,
          1173.0,
          1174.0,
          1174.0,
          1175.0,
          1175.0,
          1174.0,
          1175.0,
          1175.0,
          1175.0,
          1175.0,
          1176.0,
          1175.0,
          1174.0,
          1174.0,
          1174.0,
          1174.0,
          1176.0,
          1175.0,
          1175.0,
          1176.0,
          1176.0,
          1175.0,
          1176.0,
          1176.0,
          1176.0,
          1176.0,
          1175.0,
          1175.0,
          1176.0,
          1177.0,
          1176.0,
          1175.0,
          1173.0,
          1171.0,
          1171.0,
          1172.0,
          1173.0,
          1172.0,
          1170.0,
          1169.0,
          1172.0,
          1173.0,
          1175.0,
          1175.0,
          1173.0,
          1171.0,
          1172.0,
          1172.0,
          1172.0,
          1172.0,
          1173.0,
          1172.0,
          1170.0,
          1173.0,
          1171.0,
          1170.0,
          1169.0,
          1166.0,
          1166.0,
          1168.0,
          1170.0,
          1171.0,
          1171.0,
          1174.0,
          1175.0,
          1178.0,
          1180.0,
          1178.0,
          1178.0,
          1178.0,
          1177.0,
          1175.0,
          1174.0,
          1173.0,
          1173.0,
          1172.0,
          1172.0,
          1171.0,
          1171.0,
          1172.0,
          1174.0,
          1174.0,
          1172.0,
          1172.0,
          1173.0,
          1176.0,
          1175.0,
          1174.0,
          1174.0,
          1175.0,
          1176.0,
          1176.0,
          1177.0,
          1176.0,
          1175.0,
          1176.0,
          1176.0,
          1175.0,
          1176.0,
          1177.0,
          1177.0,
          1177.0,
          1175.0,
          1176.0,
          1175.0,
          1175.0,
          1175.0,
          1174.0,
          1175.0,
          1172.0,
          1172.0,
          1173.0,
          1174.0,
          1173.0,
          1172.0,
          1171.0,
          1172.0,
          1173.0,
          1174.0,
          1172.0,
          1170.0,
          1173.0,
          1177.0,
          1177.0,
          1176.0,
          1175.0,
          1176.0,
          1177.0,
          1179.0,
          1177.0,
          1173.0,
          1174.0,
          1173.0,
          1173.0,
          1172.0,
          1172.0,
          1172.0,
          1172.0,
          1175.0,
          1176.0,
          1174.0,
          1174.0,
          1172.0,
          1172.0,
          1172.0,
          1171.0,
          1173.0,
          1175.0,
          1174.0,
          1174.0,
          1172.0,
          1172.0,
          1172.0,
          1174.0,
          1174.0,
          1172.0,
          1173.0,
          1174.0,
          1174.0
        ],
        "WindowWidth": [
          2849.0,
          2845.0,
          2845.0,
          2848.0,
          2847.0,
          2844.0,
          2842.0,
          2848.0,
          2850.0,
          2847.0,
          2846.0,
          2849.0,
          2852.0,
          2851.0,
          2848.0,
          2850.0,
          2848.0,
          2847.0,
          2847.0,
          2844.0,
          2848.0,
          2851.0,
          2852.0,
          2850.0,
          2853.0,
          2854.0,
          2852.0,
          2850.0,
          2852.0,
          2854.0,
          2852.0,
          2850.0,
          2849.0,
          2852.0,
          2853.0,
          2853.0,
          2850.0,
          2843.0,
          2838.0,
          2837.0,
          2842.0,
          2846.0,
          2839.0,
          2833.0,
          2834.0,
          2839.0,
          2845.0,
          2850.0,
          2849.0,
          2842.0,
          2842.0,
          2844.0,
          2844.0,
          2843.0,
          2847.0,
          2848.0,
          2841.0,
          2838.0,
          2844.0,
          2838.0,
          2832.0,
          2825.0,
          2819.0,
          2820.0,
          2827.0,
          2833.0,
          2836.0,
          2838.0,
          2849.0,
          2854.0,
          2860.0,
          2861.0,
          2861.0,
          2860.0,
          2860.0,
          2854.0,
          2849.0,
          2846.0,
          2844.0,
          2843.0,
          2840.0,
          2837.0,
          2836.0,
          2837.0,
          2842.0,
          2846.0,
          2844.0,
          2839.0,
          2838.0,
          2842.0,
          2847.0,
          2848.0,
          2842.0,
          2843.0,
          2845.0,
          2850.0,
          2850.0,
          2851.0,
          2848.0,
          2849.0,
          2851.0,
          2848.0,
          2847.0,
          2848.0,
          2851.0,
          2853.0,
          2849.0,
          2848.0,
          2850.0,
          2847.0,
          2847.0,
          2847.0,
          2843.0,
          2844.0,
          2836.0,
          2837.0,
          2841.0,
          2841.0,
          2838.0,
          2836.0,
          2832.0,
          2840.0,
          2843.0,
          2840.0,
          2833.0,
          2833.0,
          2844.0,
          2853.0,
          2852.0,
