{
  "aor": 0.0073571341463414645,
  "aqi": 0.0077112618292682926,
  "bids_meta": {
    "AcquisitionMatrixPE": 96,
    "AcquisitionNumber": 1,
    "AcquisitionTime": "09:49:57.842500",
    "BandwidthPerPixelPhaseEncode": 52.083,
    "BaseResolution": 96,
    "BodyPartExamined": "HEAD",
    "ConversionSoftware": "dcm2niix",
    "ConversionSoftwareVersion": "v1.0.20180622 GCC6.3.0",
    "DerivedVendorReportedEchoSpacing": 0.000600004,
    "DeviceSerialNumber": "18926",
    "DwellTime": 2.6e-06,
    "EchoTime": 0.025,
    "EffectiveEchoSpacing": 0.000200001,
    "FlipAngle": 50,
    "ImageOrientationPatientDICOM": [
      0.999992,
      0.00067012,
      0.00404905,
      2.11009e-10,
      0.98658,
      -0.16328
    ],
    "ImageType": [
      "ORIGINAL",
      "PRIMARY",
      "M",
      "ND",
      "ECHO",
      "00",
      "MOSAIC"
    ],
    "InPlanePhaseEncodingDirectionDICOM": "ROW",
    "InstitutionName": "NIMH",
    "InstitutionalDepartmentName": "Department",
    "MRAcquisitionType": "2D",
    "MagneticFieldStrength": 6.98,
    "Manufacturer": "Siemens",
    "ManufacturersModelName": "Investigational_Device_7T",
    "Modality": "MR",
    "ParallelReductionFactorInPlane": 3,
    "PartialFourier": 1,
    "PatientPosition": "HFS",
    "PercentPhaseFOV": 100,
    "PhaseEncodingDirection": "i",
    "PhaseEncodingSteps": 94,
    "PhaseResolution": 1,
    "PixelBandwidth": 2003,
    "ProcedureStepDescription": "MRI_Procedure_Limited",
    "ProtocolName": "NIH_EPI_2.0iso_TR2_Run02",
    "PulseSequenceDetails": "%CustomerSeq%_inati_nih_epi",
    "ReceiveCoilName": "32Ch_Head_7T",
    "ReconMatrixPE": 96,
    "RepetitionTime": 2,
    "SAR": 0.0842282,
    "ScanningSequence": "EP",
    "SequenceName": "epfid2d1_96",
    "SequenceVariant": "SK",
    "SeriesDescription": "NIH_EPI_2.0iso_TR2_Run02",
    "SeriesNumber": 7,
    "ShimSetting": [
      -76,
      234,
      851,
      958,
      -125,
      775,
      -38,
      -365
    ],
    "SliceThickness": 2,
    "SliceTiming": [
      1.005,
      0,
      1.0425,
      0.0375,
      1.08,
      0.075,
      1.115,
      0.1125,
      1.1525,
      0.15,
      1.19,
      0.1875,
      1.2275,
      0.225,
      1.265,
      0.26,
      1.3025,
      0.2975,
      1.34,
      0.335,
      1.3775,
      0.3725,
      1.4125,
      0.41,
      1.45,
      0.4475,
      1.4875,
      0.485,
      1.525,
      0.52,
      1.5625,
      0.5575,
      1.6,
      0.595,
      1.6375,
      0.6325,
      1.6725,
      0.67,
      1.71,
      0.7075,
      1.7475,
      0.745,
      1.785,
      0.7825,
      1.8225,
      0.8175,
      1.86,
      0.855,
      1.8975,
      0.8925,
      1.935,
      0.93,
      1.97,
      0.9675
    ],
    "SoftwareVersions": "syngo_MR_B17",
    "SpacingBetweenSlices": 2,
    "StationName": "FMRIFD7T",
    "TaskName": "HalfFovNoTask",
    "TotalReadoutTime": 0.0190001,
    "TxRefAmp": 328,
    "dataset": "ds001555",
    "dcmmeta_affine": [
      [
        -1.9999831914901733,
        4.2201880878778297e-10,
        0.008208253420889378,
        95.76705169677734
      ],
      [
        -0.0013402394251897931,
        1.973159670829773,
        -0.32655632495880127,
        -58.3952751159668
      ],
      [
        0.008098097518086433,
        0.32655906677246094,
        1.9731431007385254,
        -41.57032775878906
      ],
      [
        0.0,
        0.0,
        0.0,
        1.0
      ]
    ],
    "dcmmeta_reorient_transform": [
      [
        0.0,
        -1.0,
        0.0,
        95.0
      ],
      [
        1.0,
        0.0,
        0.0,
        0.0
      ],
      [
        0.0,
        0.0,
        1.0,
        0.0
      ],
      [
        0.0,
        0.0,
        0.0,
        1.0
      ]
    ],
    "dcmmeta_shape": [
      96,
      96,
      54,
      164
    ],
    "dcmmeta_slice_dim": 2,
    "dcmmeta_version": 0.6,
    "global": {
      "const": {
        "AcquisitionMatrix": [
          0,
          96,
          96,
          0
        ],
        "Allergies": "No Known Allergies",
        "AngioFlag": "N",
        "BitsAllocated": 16,
        "BitsStored": 12,
        "BodyPartExamined": "HEAD",
        "Columns": 768,
        "EchoNumbers": 1,
        "EchoTime": 25.0,
        "EchoTrainLength": 1,
        "FlipAngle": 50.0,
        "HighBit": 11,
        "ImageOrientationPatient": [
          0.99999157803662,
          0.00067011969073,
          0.00404904870684,
          2.110094e-10,
          0.98657984636313,
          -0.1632795356133
        ],
        "ImagePositionPatient": [
          -767.761392775,
          -792.48687407585,
          96.455670438306
        ],
        "ImageType": [
          "ORIGINAL",
          "PRIMARY",
          "M",
          "ND",
          "ECHO_00",
          "MOSAIC"
        ],
        "ImagedNucleus": "1H",
        "ImagingFrequency": 297.204947,
        "InPlanePhaseEncodingDirection": "ROW",
        "LargestImagePixelValue": 4095,
        "MRAcquisitionType": "2D",
        "MagneticFieldStrength": 6.98,
        "Manufacturer": "SIEMENS",
        "ManufacturerModelName": "Investigational_Device_7T",
        "Modality": "MR",
        "NumberOfAverages": 1.0,
        "NumberOfPhaseEncodingSteps": 94,
        "PercentPhaseFieldOfView": 100.0,
        "PercentSampling": 100.0,
        "PerformedProcedureStepStartTime": "092458.041000",
        "PhotometricInterpretation": "MONOCHROME2",
        "PixelBandwidth": 2003.0,
        "PixelRepresentation": 0,
        "PixelSpacing": [
          2.0,
          2.0
        ],
        "PositionReferenceIndicator": "",
        "ProcedureCodeSequence": [
          {
            "CodeMeaning": "MRI Procedure Limited",
            "CodeValue": "MI01491",
            "CodingSchemeDesignator": "USA Standard",
            "ContextIdentifier": "4000099688"
          }
        ],
        "ProtocolName": "NIH_EPI_2.0iso_TR2_Run02",
        "ReferencedStudySequence": [
          {
            "ReferencedSOPClassUID": "1.2.840.10008.3.1.2.3.1",
            "ReferencedSOPInstanceUID": "1.2.840.113564.9.1.2723958737.61.2.5000065470"
          }
        ],
        "RepetitionTime": 2000.0,
        "RequestedProcedureCodeSequence": [
          {
            "CodeMeaning": "MRI Procedure Limited",
            "CodeValue": "MI01491",
            "CodingSchemeDesignator": "USA Standard",
            "ContextIdentifier": "4000099688"
          }
        ],
        "RequestingService": "MHMI",
        "Rows": 768,
        "SAR": 0.0842281737037,
        "SamplesPerPixel": 1,
        "ScanningSequence": "EP",
        "SequenceName": "epfid2d1_96",
        "SequenceVariant": "SK",
        "SeriesDescription": "NIH_EPI_2.0iso_TR2_Run02",
        "SeriesNumber": 7,
        "SliceLocation": -31.084389907735,
        "SliceThickness": 2.0,
        "SmallestImagePixelValue": 0,
        "SoftwareVersions": "syngo MR B17",
        "SpacingBetweenSlices": 2.0000000184226,
        "TransmitCoilName": "32Ch_Head_7T",
        "VariableFlipAngleFlag": "N",
        "WindowCenterWidthExplanation": "Algo1",
        "dBdt": 0.0
      },
      "slices": {}
    },
    "modality": "bold",
    "run_id": 4,
    "session_id": "01",
    "subject_id": "001",
    "task_id": "HalfFovNoTask",
    "time": {
      "samples": {
        "AcquisitionNumber": [
          1,
          2,
          3,
          4,
          5,
          6,
          7,
          8,
          9,
          10,
          11,
          12,
          13,
          14,
          15,
          16,
          17,
          18,
          19,
          20,
          21,
          22,
          23,
          24,
          25,
          26,
          27,
          28,
          29,
          30,
          31,
          32,
          33,
          34,
          35,
          36,
          37,
          38,
          39,
          40,
          41,
          42,
          43,
          44,
          45,
          46,
          47,
          48,
          49,
          50,
          51,
          52,
          53,
          54,
          55,
          56,
          57,
          58,
          59,
          60,
          61,
          62,
          63,
          64,
          65,
          66,
          67,
          68,
          69,
          70,
          71,
          72,
          73,
          74,
          75,
          76,
          77,
          78,
          79,
          80,
          81,
          82,
          83,
          84,
          85,
          86,
          87,
          88,
          89,
          90,
          91,
          92,
          93,
          94,
          95,
          96,
          97,
          98,
          99,
          100,
          101,
          102,
          103,
          104,
          105,
          106,
          107,
          108,
          109,
          110,
          111,
          112,
          113,
          114,
          115,
          116,
          117,
          118,
          119,
          120,
          121,
          122,
          123,
          124,
          125,
          126,
          127,
          128,
          129,
          130,
          131,
          132,
          133,
          134,
          135,
          136,
          137,
          138,
          139,
          140,
          141,
          142,
          143,
          144,
          145,
          146,
          147,
          148,
          149,
          150,
          151,
          152,
          153,
          154,
          155,
          156,
          157,
          158,
          159,
          160,
          161,
          162,
          163,
          164
        ],
        "AcquisitionTime": [
          "094957.842500",
          "095001.857500",
          "095003.865000",
          "095005.875000",
          "095007.882500",
          "095009.890000",
          "095011.897500",
          "095013.907500",
          "095015.915000",
          "095017.922500",
          "095019.930000",
          "095021.937500",
          "095023.947500",
          "095025.955000",
          "095027.962500",
          "095029.970000",
          "095031.977500",
          "095033.987500",
          "095035.995000",
          "095038.002500",
          "095040.010000",
          "095042.017500",
          "095044.027500",
          "095046.035000",
          "095048.042500",
          "095050.050000",
          "095052.060000",
          "095054.067500",
          "095056.075000",
          "095058.082500",
          "095100.090000",
          "095102.100000",
          "095104.107500",
          "095106.115000",
          "095108.122500",
          "095110.130000",
          "095112.140000",
          "095114.147500",
          "095116.155000",
          "095118.162500",
          "095120.172500",
          "095122.180000",
          "095124.187500",
          "095126.195000",
          "095128.202500",
          "095130.212500",
          "095132.220000",
          "095134.227500",
          "095136.235000",
          "095138.242500",
          "095140.252500",
          "095142.260000",
          "095144.267500",
          "095146.275000",
          "095148.285000",
          "095150.292500",
          "095152.300000",
          "095154.307500",
          "095156.315000",
          "095158.325000",
          "095200.332500",
          "095202.340000",
          "095204.347500",
          "095206.355000",
          "095208.365000",
          "095210.372500",
          "095212.380000",
          "095214.387500",
          "095216.395000",
          "095218.405000",
          "095220.412500",
          "095222.420000",
          "095224.427500",
          "095226.437500",
          "095228.445000",
          "095230.452500",
          "095232.460000",
          "095234.467500",
          "095236.477500",
          "095238.485000",
          "095240.492500",
          "095242.500000",
          "095244.507500",
          "095246.517500",
          "095248.525000",
          "095250.532500",
          "095252.540000",
          "095254.550000",
          "095256.557500",
          "095258.565000",
          "095300.572500",
          "095302.580000",
          "095304.590000",
          "095306.597500",
          "095308.605000",
          "095310.612500",
          "095312.620000",
          "095314.630000",
          "095316.637500",
          "095318.645000",
          "095320.652500",
          "095322.662500",
          "095324.670000",
          "095326.677500",
          "095328.685000",
          "095330.692500",
          "095332.702500",
          "095334.710000",
          "095336.717500",
          "095338.725000",
          "095340.732500",
          "095342.742500",
          "095344.750000",
          "095346.757500",
          "095348.765000",
          "095350.775000",
          "095352.782500",
          "095354.790000",
          "095356.797500",
          "095358.805000",
          "095400.815000",
          "095402.822500",
          "095404.830000",
          "095406.837500",
          "095408.845000",
          "095410.855000",
          "095412.862500",
          "095414.870000",
          "095416.877500",
          "095418.885000",
          "095420.895000",
          "095422.902500",
          "095424.910000",
          "095426.917500",
          "095428.927500",
          "095430.935000",
          "095432.942500",
          "095434.950000",
          "095436.957500",
          "095438.967500",
          "095440.975000",
          "095442.982500",
          "095444.990000",
          "095446.997500",
          "095449.007500",
          "095451.015000",
          "095453.022500",
          "095455.030000",
          "095457.040000",
          "095459.047500",
          "095501.055000",
          "095503.062500",
          "095505.070000",
          "095507.080000",
          "095509.087500",
          "095511.095000",
          "095513.102500",
          "095515.110000",
          "095517.120000",
          "095519.127500",
          "095521.135000",
          "095523.142500",
          "095525.152500",
          "095527.160000"
        ],
        "ContentTime": [
          "095055.525000",
          "095055.525000",
          "095055.525000",
          "095055.525000",
          "095055.541000",
          "095055.541000",
          "095055.541000",
          "095055.541000",
          "095055.541000",
          "095055.541000",
          "095055.557000",
          "095055.557000",
          "095055.557000",
          "095055.557000",
          "095055.557000",
          "095055.557000",
          "095055.557000",
          "095055.572000",
          "095055.572000",
          "095055.572000",
          "095055.572000",
          "095055.572000",
          "095055.588000",
          "095055.588000",
          "095055.588000",
          "095055.588000",
          "095055.588000",
          "095055.588000",
          "095135.510000",
          "095135.510000",
          "095135.510000",
          "095135.510000",
          "095135.525000",
          "095135.525000",
          "095135.525000",
          "095135.525000",
          "095135.525000",
          "095135.525000",
          "095135.525000",
          "095135.541000",
          "095135.541000",
          "095135.541000",
          "095135.541000",
          "095135.557000",
          "095135.557000",
          "095135.557000",
          "095135.557000",
          "095135.557000",
          "095215.510000",
          "095215.510000",
          "095215.510000",
          "095215.510000",
          "095215.525000",
          "095215.525000",
          "095215.525000",
          "095215.525000",
          "095215.525000",
          "095215.525000",
          "095215.525000",
          "095215.541000",
          "095215.541000",
          "095215.541000",
          "095215.541000",
          "095215.541000",
          "095215.541000",
          "095215.557000",
          "095215.557000",
          "095215.557000",
          "095255.510000",
          "095255.510000",
          "095255.510000",
          "095255.525000",
          "095255.525000",
          "095255.525000",
          "095255.525000",
          "095255.525000",
          "095255.541000",
          "095255.541000",
          "095255.541000",
          "095255.541000",
          "095255.541000",
          "095255.541000",
          "095255.557000",
          "095255.557000",
          "095255.557000",
          "095255.557000",
          "095255.557000",
          "095255.557000",
          "095315.510000",
          "095315.510000",
          "095315.510000",
          "095315.510000",
          "095315.525000",
          "095315.525000",
          "095315.525000",
          "095315.525000",
          "095315.525000",
          "095315.525000",
          "095355.510000",
          "095355.510000",
          "095355.510000",
          "095355.510000",
          "095355.525000",
          "095355.525000",
          "095355.525000",
          "095355.525000",
          "095355.525000",
          "095355.525000",
          "095355.525000",
          "095355.541000",
          "095355.541000",
          "095355.541000",
          "095355.541000",
          "095355.541000",
          "095355.541000",
          "095355.557000",
          "095355.557000",
          "095355.557000",
          "095435.510000",
          "095435.510000",
          "095435.510000",
          "095435.510000",
          "095435.525000",
          "095435.525000",
          "095435.525000",
          "095435.525000",
          "095435.525000",
          "095435.525000",
          "095435.525000",
          "095435.541000",
          "095435.541000",
          "095435.541000",
          "095435.541000",
          "095435.541000",
          "095435.541000",
          "095435.557000",
          "095435.557000",
          "095435.557000",
          "095515.510000",
          "095515.510000",
          "095515.510000",
          "095515.510000",
          "095515.525000",
          "095515.525000",
          "095515.525000",
          "095515.525000",
          "095515.525000",
          "095515.525000",
          "095515.525000",
          "095515.541000",
          "095515.541000",
          "095515.541000",
          "095515.541000",
          "095515.541000",
          "095515.557000",
          "095515.557000",
          "095515.557000",
          "095515.557000",
          "095527.432000",
          "095527.447000",
          "095527.447000",
          "095527.447000",
          "095527.447000",
          "095527.447000"
        ],
        "InstanceCreationTime": [
          "095055.525000",
          "095055.525000",
          "095055.525000",
          "095055.525000",
          "095055.541000",
          "095055.541000",
          "095055.541000",
          "095055.541000",
          "095055.541000",
          "095055.541000",
          "095055.557000",
          "095055.557000",
          "095055.557000",
          "095055.557000",
          "095055.557000",
          "095055.557000",
          "095055.557000",
          "095055.572000",
          "095055.572000",
          "095055.572000",
          "095055.572000",
          "095055.572000",
          "095055.588000",
          "095055.588000",
          "095055.588000",
          "095055.588000",
          "095055.588000",
          "095055.588000",
          "095135.510000",
          "095135.510000",
          "095135.510000",
          "095135.510000",
          "095135.525000",
          "095135.525000",
          "095135.525000",
          "095135.525000",
          "095135.525000",
          "095135.525000",
          "095135.525000",
          "095135.541000",
          "095135.541000",
          "095135.541000",
          "095135.541000",
          "095135.557000",
          "095135.557000",
          "095135.557000",
          "095135.557000",
          "095135.557000",
          "095215.510000",
          "095215.510000",
          "095215.510000",
          "095215.510000",
          "095215.525000",
          "095215.525000",
          "095215.525000",
          "095215.525000",
          "095215.525000",
          "095215.525000",
          "095215.525000",
          "095215.541000",
          "095215.541000",
          "095215.541000",
          "095215.541000",
          "095215.541000",
          "095215.541000",
          "095215.557000",
          "095215.557000",
          "095215.557000",
          "095255.510000",
          "095255.510000",
          "095255.510000",
          "095255.525000",
          "095255.525000",
          "095255.525000",
          "095255.525000",
          "095255.525000",
          "095255.541000",
          "095255.541000",
          "095255.541000",
          "095255.541000",
          "095255.541000",
          "095255.541000",
          "095255.557000",
          "095255.557000",
          "095255.557000",
          "095255.557000",
          "095255.557000",
          "095255.557000",
          "095315.510000",
          "095315.510000",
          "095315.510000",
          "095315.510000",
          "095315.525000",
          "095315.525000",
          "095315.525000",
          "095315.525000",
          "095315.525000",
          "095315.525000",
          "095355.510000",
          "095355.510000",
          "095355.510000",
          "095355.510000",
          "095355.525000",
          "095355.525000",
          "095355.525000",
          "095355.525000",
          "095355.525000",
          "095355.525000",
          "095355.525000",
          "095355.541000",
          "095355.541000",
          "095355.541000",
          "095355.541000",
          "095355.541000",
          "095355.541000",
          "095355.557000",
          "095355.557000",
          "095355.557000",
          "095435.510000",
          "095435.510000",
          "095435.510000",
          "095435.510000",
          "095435.525000",
          "095435.525000",
          "095435.525000",
          "095435.525000",
          "095435.525000",
          "095435.525000",
          "095435.525000",
          "095435.541000",
          "095435.541000",
          "095435.541000",
          "095435.541000",
          "095435.541000",
          "095435.541000",
          "095435.557000",
          "095435.557000",
          "095435.557000",
          "095515.510000",
          "095515.510000",
          "095515.510000",
          "095515.510000",
          "095515.525000",
          "095515.525000",
          "095515.525000",
          "095515.525000",
          "095515.525000",
          "095515.525000",
          "095515.525000",
          "095515.541000",
          "095515.541000",
          "095515.541000",
          "095515.541000",
          "095515.541000",
          "095515.557000",
          "095515.557000",
          "095515.557000",
          "095515.557000",
          "095527.432000",
          "095527.447000",
          "095527.447000",
          "095527.447000",
          "095527.447000",
          "095527.447000"
        ],
        "InstanceNumber": [
          1,
          2,
          3,
          4,
          5,
          6,
          7,
          8,
          9,
          10,
          11,
          12,
          13,
          14,
          15,
          16,
          17,
          18,
          19,
          20,
          21,
          22,
          23,
          24,
          25,
          26,
          27,
          28,
          29,
          30,
          31,
          32,
          33,
          34,
          35,
          36,
          37,
          38,
          39,
          40,
          41,
          42,
          43,
          44,
          45,
          46,
          47,
          48,
          49,
          50,
          51,
          52,
          53,
          54,
          55,
          56,
          57,
          58,
          59,
          60,
          61,
          62,
          63,
          64,
          65,
          66,
          67,
          68,
          69,
          70,
          71,
          72,
          73,
          74,
          75,
          76,
          77,
          78,
          79,
          80,
          81,
          82,
          83,
          84,
          85,
          86,
          87,
          88,
          89,
          90,
          91,
          92,
          93,
          94,
          95,
          96,
          97,
          98,
          99,
          100,
          101,
          102,
          103,
          104,
          105,
          106,
          107,
          108,
          109,
          110,
          111,
          112,
          113,
          114,
          115,
          116,
          117,
          118,
          119,
          120,
          121,
          122,
          123,
          124,
          125,
          126,
          127,
          128,
          129,
          130,
          131,
          132,
          133,
          134,
          135,
          136,
          137,
          138,
          139,
          140,
          141,
          142,
          143,
          144,
          145,
          146,
          147,
          148,
          149,
          150,
          151,
          152,
          153,
          154,
          155,
          156,
          157,
          158,
          159,
          160,
          161,
          162,
          163,
          164
        ],
        "WindowCenter": [
          1212.0,
          1212.0,
          1209.0,
          1209.0,
          1208.0,
          1209.0,
          1209.0,
          1209.0,
          1210.0,
          1210.0,
          1212.0,
          1212.0,
          1211.0,
          1212.0,
          1211.0,
          1211.0,
          1210.0,
          1210.0,
          1211.0,
          1212.0,
          1211.0,
          1211.0,
          1211.0,
          1212.0,
          1213.0,
          1213.0,
          1213.0,
          1210.0,
          1214.0,
          1215.0,
          1214.0,
          1212.0,
          1212.0,
          1212.0,
          1212.0,
          1212.0,
          1212.0,
          1211.0,
          1212.0,
          1212.0,
          1211.0,
          1210.0,
          1209.0,
          1208.0,
          1209.0,
          1212.0,
          1212.0,
          1214.0,
          1214.0,
          1213.0,
          1212.0,
          1213.0,
          1213.0,
          1214.0,
          1212.0,
          1210.0,
          1209.0,
          1208.0,
          1210.0,
          1211.0,
          1214.0,
          1215.0,
          1213.0,
          1212.0,
          1211.0,
          1213.0,
          1215.0,
          1215.0,
          1213.0,
          1213.0,
          1213.0,
          1213.0,
          1213.0,
          1212.0,
          1213.0,
          1215.0,
          1215.0,
          1214.0,
          1212.0,
          1212.0,
          1212.0,
          1213.0,
          1216.0,
          1216.0,
          1214.0,
          1212.0,
          1213.0,
          1214.0,
          1215.0,
          1214.0,
          1213.0,
          1214.0,
          1215.0,
          1214.0,
          1213.0,
          1213.0,
          1211.0,
          1211.0,
          1212.0,
          1213.0,
          1213.0,
          1211.0,
          1212.0,
          1211.0,
          1210.0,
          1211.0,
          1212.0,
          1216.0,
          1217.0,
          1215.0,
          1216.0,
          1214.0,
          1215.0,
          1215.0,
          1215.0,
          1214.0,
          1214.0,
          1212.0,
          1215.0,
          1214.0,
          1214.0,
          1213.0,
          1214.0,
          1213.0,
          1213.0,
          1215.0,
          1215.0,
          1216.0,
          1216.0,
          1215.0,
          1212.0,
          1212.0,
          1214.0,
          1216.0,
          1215.0,
          1212.0,
          1211.0,
          1212.0,
          1216.0,
          1217.0,
          1216.0,
          1215.0,
          1219.0,
          1213.0,
          1206.0,
          1202.0,
          1204.0,
          1208.0,
          1212.0,
          1215.0,
          1216.0,
          1218.0,
          1220.0,
          1222.0,
          1223.0,
          1221.0,
          1221.0,
          1219.0,
          1219.0,
          1219.0,
          1220.0,
          1220.0,
          1221.0,
          1224.0
        ],
        "WindowWidth": [
          2934.0,
          2930.0,
          2926.0,
          2925.0,
          2925.0,
          2925.0,
          2926.0,
          2927.0,
          2929.0,
          2931.0,
          2933.0,
          2935.0,
          2934.0,
          2933.0,
          2930.0,
          2929.0,
          2930.0,
          2931.0,
          2932.0,
          2933.0,
          2931.0,
          2929.0,
          2931.0,
          2931.0,
          2934.0,
          2934.0,
          2933.0,
          2932.0,
          2942.0,
          2943.0,
          2939.0,
          2935.0,
          2933.0,
          2934.0,
          2936.0,
          2936.0,
          2935.0,
          2933.0,
          2936.0,
          2934.0,
          2932.0,
          2930.0,
          2928.0,
          2926.0,
          2932.0,
          2936.0,
          2939.0,
          2941.0,
          2941.0,
          2940.0,
          2934.0,
          2936.0,
          2939.0,
          2941.0,
          2934.0,
          2930.0,
          2924.0,
          2923.0,
          2928.0,
          2930.0,
          2937.0,
          2941.0,
          2937.0,
          2933.0,
          2934.0,
          2938.0,
          2940.0,
          2937.0,
          2935.0,
          2934.0,
          2938.0,
          2936.0,
          2936.0,
          2935.0,
          2939.0,
          2942.0,
          2941.0,
          2939.0,
          2936.0,
          2936.0,
          2934.0,
          2937.0,
          2943.0,
