{
  "aor": 0.006798536585365853,
  "aqi": 0.010538226036585364,
  "bids_meta": {
    "AcquisitionMatrixPE": 96,
    "AcquisitionNumber": 1,
    "AcquisitionTime": "10:04:4.885000",
    "BandwidthPerPixelPhaseEncode": 52.083,
    "BaseResolution": 96,
    "BodyPartExamined": "HEAD",
    "ConversionSoftware": "dcm2niix",
    "ConversionSoftwareVersion": "v1.0.20180622 GCC6.3.0",
    "DerivedVendorReportedEchoSpacing": 0.000600004,
    "DeviceSerialNumber": "18926",
    "DwellTime": 2.6e-06,
    "EchoTime": 0.025,
    "EffectiveEchoSpacing": 0.000200001,
    "FlipAngle": 50,
    "ImageOrientationPatientDICOM": [
      0.999992,
      0.00067012,
      0.00404905,
      2.11009e-10,
      0.98658,
      -0.16328
    ],
    "ImageType": [
      "ORIGINAL",
      "PRIMARY",
      "M",
      "ND",
      "ECHO",
      "00",
      "MOSAIC"
    ],
    "InPlanePhaseEncodingDirectionDICOM": "ROW",
    "InstitutionName": "NIMH",
    "InstitutionalDepartmentName": "Department",
    "MRAcquisitionType": "2D",
    "MagneticFieldStrength": 6.98,
    "Manufacturer": "Siemens",
    "ManufacturersModelName": "Investigational_Device_7T",
    "Modality": "MR",
    "ParallelReductionFactorInPlane": 3,
    "PartialFourier": 1,
    "PatientPosition": "HFS",
    "PercentPhaseFOV": 100,
    "PhaseEncodingDirection": "i",
    "PhaseEncodingSteps": 94,
    "PhaseResolution": 1,
    "PixelBandwidth": 2003,
    "ProcedureStepDescription": "MRI_Procedure_Limited",
    "ProtocolName": "NIH_EPI_2.0iso_TR2_Run04",
    "PulseSequenceDetails": "%CustomerSeq%_inati_nih_epi",
    "ReceiveCoilName": "32Ch_Head_7T",
    "ReconMatrixPE": 96,
    "RepetitionTime": 2,
    "SAR": 0.0842282,
    "ScanningSequence": "EP",
    "SequenceName": "epfid2d1_96",
    "SequenceVariant": "SK",
    "SeriesDescription": "NIH_EPI_2.0iso_TR2_Run04",
    "SeriesNumber": 9,
    "ShimSetting": [
      -76,
      234,
      851,
      958,
      -125,
      775,
      -38,
      -365
    ],
    "SliceThickness": 2,
    "SliceTiming": [
      1.0025,
      0,
      1.04,
      0.0375,
      1.0775,
      0.075,
      1.115,
      0.1125,
      1.1525,
      0.1475,
      1.19,
      0.185,
      1.2275,
      0.2225,
      1.265,
      0.26,
      1.3,
      0.2975,
      1.3375,
      0.335,
      1.375,
      0.3725,
      1.4125,
      0.41,
      1.45,
      0.445,
      1.4875,
      0.4825,
      1.525,
      0.52,
      1.5625,
      0.5575,
      1.5975,
      0.595,
      1.635,
      0.6325,
      1.6725,
      0.67,
      1.71,
      0.705,
      1.7475,
      0.7425,
      1.785,
      0.78,
      1.8225,
      0.8175,
      1.8575,
      0.855,
      1.895,
      0.8925,
      1.9325,
      0.93,
      1.97,
      0.9675
    ],
    "SoftwareVersions": "syngo_MR_B17",
    "SpacingBetweenSlices": 2,
    "StationName": "FMRIFD7T",
    "TaskName": "HalfFovNoTask",
    "TotalReadoutTime": 0.0190001,
    "TxRefAmp": 328,
    "dataset": "ds001555",
    "dcmmeta_affine": [
      [
        -1.9999831914901733,
        4.2201880878778297e-10,
        0.008208253420889378,
        95.76705169677734
      ],
      [
        -0.0013402394251897931,
        1.973159670829773,
        -0.32655632495880127,
        -58.3952751159668
      ],
      [
        0.008098097518086433,
        0.32655906677246094,
        1.9731431007385254,
        -41.57032775878906
      ],
      [
        0.0,
        0.0,
        0.0,
        1.0
      ]
    ],
    "dcmmeta_reorient_transform": [
      [
        0.0,
        -1.0,
        0.0,
        95.0
      ],
      [
        1.0,
        0.0,
        0.0,
        0.0
      ],
      [
        0.0,
        0.0,
        1.0,
        0.0
      ],
      [
        0.0,
        0.0,
        0.0,
        1.0
      ]
    ],
    "dcmmeta_shape": [
      96,
      96,
      54,
      164
    ],
    "dcmmeta_slice_dim": 2,
    "dcmmeta_version": 0.6,
    "global": {
      "const": {
        "AcquisitionMatrix": [
          0,
          96,
          96,
          0
        ],
        "Allergies": "No Known Allergies",
        "AngioFlag": "N",
        "BitsAllocated": 16,
        "BitsStored": 12,
        "BodyPartExamined": "HEAD",
        "Columns": 768,
        "EchoNumbers": 1,
        "EchoTime": 25.0,
        "EchoTrainLength": 1,
        "FlipAngle": 50.0,
        "HighBit": 11,
        "ImageOrientationPatient": [
          0.99999157803662,
          0.00067011969073,
          0.00404904870684,
          2.110094e-10,
          0.98657984636313,
          -0.1632795356133
        ],
        "ImagePositionPatient": [
          -767.761392775,
          -792.48687407585,
          96.455670438306
        ],
        "ImageType": [
          "ORIGINAL",
          "PRIMARY",
          "M",
          "ND",
          "ECHO_00",
          "MOSAIC"
        ],
        "ImagedNucleus": "1H",
        "ImagingFrequency": 297.204994,
        "InPlanePhaseEncodingDirection": "ROW",
        "LargestImagePixelValue": 4095,
        "MRAcquisitionType": "2D",
        "MagneticFieldStrength": 6.98,
        "Manufacturer": "SIEMENS",
        "ManufacturerModelName": "Investigational_Device_7T",
        "Modality": "MR",
        "NumberOfAverages": 1.0,
        "NumberOfPhaseEncodingSteps": 94,
        "PercentPhaseFieldOfView": 100.0,
        "PercentSampling": 100.0,
        "PerformedProcedureStepStartTime": "092458.041000",
        "PhotometricInterpretation": "MONOCHROME2",
        "PixelBandwidth": 2003.0,
        "PixelRepresentation": 0,
        "PixelSpacing": [
          2.0,
          2.0
        ],
        "PositionReferenceIndicator": "",
        "ProcedureCodeSequence": [
          {
            "CodeMeaning": "MRI Procedure Limited",
            "CodeValue": "MI01491",
            "CodingSchemeDesignator": "USA Standard",
            "ContextIdentifier": "4000099688"
          }
        ],
        "ProtocolName": "NIH_EPI_2.0iso_TR2_Run04",
        "ReferencedStudySequence": [
          {
            "ReferencedSOPClassUID": "1.2.840.10008.3.1.2.3.1",
            "ReferencedSOPInstanceUID": "1.2.840.113564.9.1.2723958737.61.2.5000065470"
          }
        ],
        "RepetitionTime": 2000.0,
        "RequestedProcedureCodeSequence": [
          {
            "CodeMeaning": "MRI Procedure Limited",
            "CodeValue": "MI01491",
            "CodingSchemeDesignator": "USA Standard",
            "ContextIdentifier": "4000099688"
          }
        ],
        "RequestingService": "MHMI",
        "Rows": 768,
        "SAR": 0.0842281737037,
        "SamplesPerPixel": 1,
        "ScanningSequence": "EP",
        "SequenceName": "epfid2d1_96",
        "SequenceVariant": "SK",
        "SeriesDescription": "NIH_EPI_2.0iso_TR2_Run04",
        "SeriesNumber": 9,
        "SliceLocation": -31.084389907735,
        "SliceThickness": 2.0,
        "SmallestImagePixelValue": 0,
        "SoftwareVersions": "syngo MR B17",
        "SpacingBetweenSlices": 2.0000000184226,
        "TransmitCoilName": "32Ch_Head_7T",
        "VariableFlipAngleFlag": "N",
        "WindowCenterWidthExplanation": "Algo1",
        "dBdt": 0.0
      },
      "slices": {}
    },
    "modality": "bold",
    "run_id": 6,
    "session_id": "01",
    "subject_id": "001",
    "task_id": "HalfFovNoTask",
    "time": {
      "samples": {
        "AcquisitionNumber": [
          1,
          2,
          3,
          4,
          5,
          6,
          7,
          8,
          9,
          10,
          11,
          12,
          13,
          14,
          15,
          16,
          17,
          18,
          19,
          20,
          21,
          22,
          23,
          24,
          25,
          26,
          27,
          28,
          29,
          30,
          31,
          32,
          33,
          34,
          35,
          36,
          37,
          38,
          39,
          40,
          41,
          42,
          43,
          44,
          45,
          46,
          47,
          48,
          49,
          50,
          51,
          52,
          53,
          54,
          55,
          56,
          57,
          58,
          59,
          60,
          61,
          62,
          63,
          64,
          65,
          66,
          67,
          68,
          69,
          70,
          71,
          72,
          73,
          74,
          75,
          76,
          77,
          78,
          79,
          80,
          81,
          82,
          83,
          84,
          85,
          86,
          87,
          88,
          89,
          90,
          91,
          92,
          93,
          94,
          95,
          96,
          97,
          98,
          99,
          100,
          101,
          102,
          103,
          104,
          105,
          106,
          107,
          108,
          109,
          110,
          111,
          112,
          113,
          114,
          115,
          116,
          117,
          118,
          119,
          120,
          121,
          122,
          123,
          124,
          125,
          126,
          127,
          128,
          129,
          130,
          131,
          132,
          133,
          134,
          135,
          136,
          137,
          138,
          139,
          140,
          141,
          142,
          143,
          144,
          145,
          146,
          147,
          148,
          149,
          150,
          151,
          152,
          153,
          154,
          155,
          156,
          157,
          158,
          159,
          160,
          161,
          162,
          163,
          164
        ],
        "AcquisitionTime": [
          "100404.885000",
          "100408.902500",
          "100410.910000",
          "100412.917500",
          "100414.927500",
          "100416.935000",
          "100418.942500",
          "100420.950000",
          "100422.957500",
          "100424.967500",
          "100426.975000",
          "100428.982500",
          "100430.990000",
          "100432.997500",
          "100435.007500",
          "100437.015000",
          "100439.022500",
          "100441.030000",
          "100443.037500",
          "100445.047500",
          "100447.055000",
          "100449.062500",
          "100451.070000",
          "100453.080000",
          "100455.087500",
          "100457.095000",
          "100459.102500",
          "100501.110000",
          "100503.120000",
          "100505.127500",
          "100507.135000",
          "100509.142500",
          "100511.150000",
          "100513.160000",
          "100515.167500",
          "100517.175000",
          "100519.182500",
          "100521.192500",
          "100523.200000",
          "100525.207500",
          "100527.215000",
          "100529.222500",
          "100531.232500",
          "100533.240000",
          "100535.247500",
          "100537.255000",
          "100539.262500",
          "100541.272500",
          "100543.280000",
          "100545.287500",
          "100547.295000",
          "100549.305000",
          "100551.312500",
          "100553.320000",
          "100555.327500",
          "100557.335000",
          "100559.345000",
          "100601.352500",
          "100603.360000",
          "100605.367500",
          "100607.375000",
          "100609.385000",
          "100611.392500",
          "100613.400000",
          "100615.407500",
          "100617.417500",
          "100619.425000",
          "100621.432500",
          "100623.440000",
          "100625.447500",
          "100627.457500",
          "100629.465000",
          "100631.472500",
          "100633.480000",
          "100635.487500",
          "100637.497500",
          "100639.505000",
          "100641.512500",
          "100643.520000",
          "100645.527500",
          "100647.537500",
          "100649.545000",
          "100651.552500",
          "100653.560000",
          "100655.570000",
          "100657.577500",
          "100659.585000",
          "100701.592500",
          "100703.600000",
          "100705.610000",
          "100707.617500",
          "100709.625000",
          "100711.632500",
          "100713.640000",
          "100715.650000",
          "100717.657500",
          "100719.665000",
          "100721.672500",
          "100723.682500",
          "100725.690000",
          "100727.697500",
          "100729.705000",
          "100731.712500",
          "100733.722500",
          "100735.730000",
          "100737.737500",
          "100739.745000",
          "100741.752500",
          "100743.762500",
          "100745.770000",
          "100747.777500",
          "100749.785000",
          "100751.795000",
          "100753.802500",
          "100755.810000",
          "100757.817500",
          "100759.825000",
          "100801.835000",
          "100803.842500",
          "100805.850000",
          "100807.857500",
          "100809.865000",
          "100811.875000",
          "100813.882500",
          "100815.890000",
          "100817.897500",
          "100819.905000",
          "100821.915000",
          "100823.922500",
          "100825.930000",
          "100827.937500",
          "100829.947500",
          "100831.955000",
          "100833.962500",
          "100835.970000",
          "100837.977500",
          "100839.987500",
          "100841.995000",
          "100844.002500",
          "100846.010000",
          "100848.017500",
          "100850.027500",
          "100852.035000",
          "100854.042500",
          "100856.050000",
          "100858.060000",
          "100900.067500",
          "100902.075000",
          "100904.082500",
          "100906.090000",
          "100908.100000",
          "100910.107500",
          "100912.115000",
          "100914.122500",
          "100916.130000",
          "100918.140000",
          "100920.147500",
          "100922.155000",
          "100924.162500",
          "100926.172500",
          "100928.180000",
          "100930.187500",
          "100932.195000",
          "100934.202500"
        ],
        "ContentTime": [
          "100454.041000",
          "100454.041000",
          "100454.041000",
          "100454.057000",
          "100454.057000",
          "100454.057000",
          "100454.057000",
          "100454.057000",
          "100454.057000",
          "100454.057000",
          "100454.072000",
          "100454.072000",
          "100454.072000",
          "100454.072000",
          "100454.072000",
          "100454.072000",
          "100454.088000",
          "100454.088000",
          "100454.088000",
          "100454.088000",
          "100454.088000",
          "100454.088000",
          "100454.103000",
          "100534.025000",
          "100534.041000",
          "100534.041000",
          "100534.041000",
          "100534.041000",
          "100534.057000",
          "100534.057000",
          "100534.057000",
          "100534.057000",
          "100534.057000",
          "100534.072000",
          "100534.072000",
          "100534.072000",
          "100534.072000",
          "100534.072000",
          "100534.072000",
          "100534.088000",
          "100534.088000",
          "100534.088000",
          "100534.088000",
          "100614.025000",
          "100614.025000",
          "100614.041000",
          "100614.041000",
          "100614.041000",
          "100614.041000",
          "100614.041000",
          "100614.041000",
          "100614.057000",
          "100614.057000",
          "100614.057000",
          "100614.057000",
          "100614.057000",
          "100614.057000",
          "100614.072000",
          "100614.072000",
          "100614.072000",
          "100614.072000",
          "100614.088000",
          "100614.088000",
          "100654.025000",
          "100654.025000",
          "100654.025000",
          "100654.025000",
          "100654.041000",
          "100654.041000",
          "100654.041000",
          "100654.041000",
          "100654.041000",
          "100654.041000",
          "100654.041000",
          "100654.057000",
          "100654.057000",
          "100654.057000",
          "100654.057000",
          "100654.057000",
          "100654.057000",
          "100654.072000",
          "100654.072000",
          "100654.072000",
          "100734.025000",
          "100734.025000",
          "100734.025000",
          "100734.025000",
          "100734.041000",
          "100734.041000",
          "100734.041000",
          "100734.041000",
          "100734.057000",
          "100734.057000",
          "100734.057000",
          "100734.057000",
          "100734.057000",
          "100734.057000",
          "100734.072000",
          "100734.072000",
          "100734.072000",
          "100734.072000",
          "100734.072000",
          "100734.088000",
          "100814.025000",
          "100814.025000",
          "100814.025000",
          "100814.025000",
          "100814.041000",
          "100814.041000",
          "100814.041000",
          "100814.041000",
          "100814.041000",
          "100814.041000",
          "100814.041000",
          "100814.057000",
          "100814.057000",
          "100814.057000",
          "100814.072000",
          "100814.072000",
          "100814.072000",
          "100814.072000",
          "100814.072000",
          "100814.072000",
          "100854.025000",
          "100854.025000",
          "100854.025000",
          "100854.025000",
          "100854.041000",
          "100854.041000",
          "100854.041000",
          "100854.041000",
          "100854.041000",
          "100854.041000",
          "100854.041000",
          "100854.057000",
          "100854.057000",
          "100854.057000",
          "100854.057000",
          "100854.057000",
          "100854.057000",
          "100854.072000",
          "100854.072000",
          "100854.072000",
          "100934.025000",
          "100934.025000",
          "100934.025000",
          "100934.025000",
          "100934.041000",
          "100934.041000",
          "100934.041000",
          "100934.041000",
          "100934.057000",
          "100934.057000",
          "100934.057000",
          "100934.057000",
          "100934.057000",
          "100934.057000",
          "100934.072000",
          "100934.072000",
          "100934.072000",
          "100934.072000",
          "100934.072000",
          "100934.072000",
          "100934.182000"
        ],
        "InstanceCreationTime": [
          "100454.041000",
          "100454.041000",
          "100454.041000",
          "100454.057000",
          "100454.057000",
          "100454.057000",
          "100454.057000",
          "100454.057000",
          "100454.057000",
          "100454.057000",
          "100454.072000",
          "100454.072000",
          "100454.072000",
          "100454.072000",
          "100454.072000",
          "100454.072000",
          "100454.088000",
          "100454.088000",
          "100454.088000",
          "100454.088000",
          "100454.088000",
          "100454.088000",
          "100454.103000",
          "100534.025000",
          "100534.041000",
          "100534.041000",
          "100534.041000",
          "100534.041000",
          "100534.057000",
          "100534.057000",
          "100534.057000",
          "100534.057000",
          "100534.057000",
          "100534.072000",
          "100534.072000",
          "100534.072000",
          "100534.072000",
          "100534.072000",
          "100534.072000",
          "100534.088000",
          "100534.088000",
          "100534.088000",
          "100534.088000",
          "100614.025000",
          "100614.025000",
          "100614.041000",
          "100614.041000",
          "100614.041000",
          "100614.041000",
          "100614.041000",
          "100614.041000",
          "100614.057000",
          "100614.057000",
          "100614.057000",
          "100614.057000",
          "100614.057000",
          "100614.057000",
          "100614.072000",
          "100614.072000",
          "100614.072000",
          "100614.072000",
          "100614.088000",
          "100614.088000",
          "100654.025000",
          "100654.025000",
          "100654.025000",
          "100654.025000",
          "100654.041000",
          "100654.041000",
          "100654.041000",
          "100654.041000",
          "100654.041000",
          "100654.041000",
          "100654.041000",
          "100654.057000",
          "100654.057000",
          "100654.057000",
          "100654.057000",
          "100654.057000",
          "100654.057000",
          "100654.072000",
          "100654.072000",
          "100654.072000",
          "100734.025000",
          "100734.025000",
          "100734.025000",
          "100734.025000",
          "100734.041000",
          "100734.041000",
          "100734.041000",
          "100734.041000",
          "100734.057000",
          "100734.057000",
          "100734.057000",
          "100734.057000",
          "100734.057000",
          "100734.057000",
          "100734.072000",
          "100734.072000",
          "100734.072000",
          "100734.072000",
          "100734.072000",
          "100734.088000",
          "100814.025000",
          "100814.025000",
          "100814.025000",
          "100814.025000",
          "100814.041000",
          "100814.041000",
          "100814.041000",
          "100814.041000",
          "100814.041000",
          "100814.041000",
          "100814.041000",
          "100814.057000",
          "100814.057000",
          "100814.057000",
          "100814.072000",
          "100814.072000",
          "100814.072000",
          "100814.072000",
          "100814.072000",
          "100814.072000",
          "100854.025000",
          "100854.025000",
          "100854.025000",
          "100854.025000",
          "100854.041000",
          "100854.041000",
          "100854.041000",
          "100854.041000",
          "100854.041000",
          "100854.041000",
          "100854.041000",
          "100854.057000",
          "100854.057000",
          "100854.057000",
          "100854.057000",
          "100854.057000",
          "100854.057000",
          "100854.072000",
          "100854.072000",
          "100854.072000",
          "100934.025000",
          "100934.025000",
          "100934.025000",
          "100934.025000",
          "100934.041000",
          "100934.041000",
          "100934.041000",
          "100934.041000",
          "100934.057000",
          "100934.057000",
          "100934.057000",
          "100934.057000",
          "100934.057000",
          "100934.057000",
          "100934.072000",
          "100934.072000",
          "100934.072000",
          "100934.072000",
          "100934.072000",
          "100934.072000",
          "100934.182000"
        ],
        "InstanceNumber": [
          1,
          2,
          3,
          4,
          5,
          6,
          7,
          8,
          9,
          10,
          11,
          12,
          13,
          14,
          15,
          16,
          17,
          18,
          19,
          20,
          21,
          22,
          23,
          24,
          25,
          26,
          27,
          28,
          29,
          30,
          31,
          32,
          33,
          34,
          35,
          36,
          37,
          38,
          39,
          40,
          41,
          42,
          43,
          44,
          45,
          46,
          47,
          48,
          49,
          50,
          51,
          52,
          53,
          54,
          55,
          56,
          57,
          58,
          59,
          60,
          61,
          62,
          63,
          64,
          65,
          66,
          67,
          68,
          69,
          70,
          71,
          72,
          73,
          74,
          75,
          76,
          77,
          78,
          79,
          80,
          81,
          82,
          83,
          84,
          85,
          86,
          87,
          88,
          89,
          90,
          91,
          92,
          93,
          94,
          95,
          96,
          97,
          98,
          99,
          100,
          101,
          102,
          103,
          104,
          105,
          106,
          107,
          108,
          109,
          110,
          111,
          112,
          113,
          114,
          115,
          116,
          117,
          118,
          119,
          120,
          121,
          122,
          123,
          124,
          125,
          126,
          127,
          128,
          129,
          130,
          131,
          132,
          133,
          134,
          135,
          136,
          137,
          138,
          139,
          140,
          141,
          142,
          143,
          144,
          145,
          146,
          147,
          148,
          149,
          150,
          151,
          152,
          153,
          154,
          155,
          156,
          157,
          158,
          159,
          160,
          161,
          162,
          163,
          164
        ],
        "WindowCenter": [
          1209.0,
          1207.0,
          1206.0,
          1207.0,
          1209.0,
          1207.0,
          1207.0,
          1207.0,
          1208.0,
          1207.0,
          1208.0,
          1207.0,
          1207.0,
          1208.0,
          1208.0,
          1209.0,
          1209.0,
          1209.0,
          1209.0,
          1210.0,
          1211.0,
          1209.0,
          1210.0,
          1207.0,
          1211.0,
          1212.0,
          1212.0,
          1209.0,
          1207.0,
          1208.0,
          1208.0,
          1212.0,
          1213.0,
          1211.0,
          1206.0,
          1207.0,
          1212.0,
          1209.0,
          1213.0,
          1212.0,
          1205.0,
          1200.0,
          1200.0,
          1205.0,
          1208.0,
          1209.0,
          1210.0,
          1212.0,
          1214.0,
          1213.0,
          1212.0,
          1211.0,
          1210.0,
          1208.0,
          1207.0,
          1208.0,
          1206.0,
          1205.0,
          1205.0,
          1206.0,
          1204.0,
          1202.0,
          1205.0,
          1206.0,
          1208.0,
          1207.0,
          1208.0,
          1210.0,
          1214.0,
          1215.0,
          1214.0,
          1219.0,
          1211.0,
          1220.0,
          1217.0,
          1213.0,
          1211.0,
          1210.0,
          1212.0,
          1211.0,
          1210.0,
          1213.0,
          1212.0,
          1213.0,
          1210.0,
          1208.0,
          1205.0,
          1203.0,
          1201.0,
          1203.0,
          1205.0,
          1207.0,
          1208.0,
          1208.0,
          1208.0,
          1206.0,
          1208.0,
          1209.0,
          1208.0,
          1208.0,
          1210.0,
          1210.0,
          1208.0,
          1208.0,
          1209.0,
          1208.0,
          1208.0,
          1208.0,
          1210.0,
          1210.0,
          1210.0,
          1211.0,
          1211.0,
          1214.0,
          1215.0,
          1217.0,
          1215.0,
          1212.0,
          1211.0,
          1210.0,
          1209.0,
          1210.0,
          1209.0,
          1210.0,
          1209.0,
          1209.0,
          1209.0,
          1209.0,
          1212.0,
          1212.0,
          1213.0,
          1212.0,
          1213.0,
          1216.0,
          1218.0,
          1215.0,
          1213.0,
          1212.0,
          1210.0,
          1211.0,
          1210.0,
          1208.0,
          1206.0,
          1208.0,
          1211.0,
          1211.0,
          1210.0,
          1208.0,
          1208.0,
          1210.0,
          1211.0,
          1210.0,
          1208.0,
          1210.0,
          1212.0,
          1213.0,
          1210.0,
          1209.0,
          1211.0,
          1212.0,
          1214.0,
          1216.0,
          1216.0,
          1216.0
        ],
        "WindowWidth": [
          2923.0,
          2919.0,
          2917.0,
          2922.0,
          2922.0,
          2919.0,
          2916.0,
          2919.0,
          2922.0,
          2922.0,
          2923.0,
          2925.0,
          2924.0,
          2925.0,
          2927.0,
          2928.0,
          2927.0,
          2930.0,
          2935.0,
          2934.0,
          2930.0,
          2931.0,
          2930.0,
          2927.0,
          2938.0,
          2936.0,
          2933.0,
          2923.0,
          2922.0,
          2922.0,
          2930.0,
          2938.0,
          2936.0,
          2928.0,
          2918.0,
          2915.0,
          2928.0,
          2927.0,
          2937.0,
          2922.0,
          2904.0,
          2894.0,
          2898.0,
          2914.0,
          2922.0,
          2927.0,
          2929.0,
          2935.0,
          2936.0,
          2935.0,
          2931.0,
          2930.0,
          2928.0,
          2922.0,
          2917.0,
          2921.0,
          2915.0,
          2913.0,
          2913.0,
          2913.0,
          2907.0,
          2904.0,
          2912.0,
          2917.0,
          2922.0,
          2920.0,
          2923.0,
          2932.0,
          2940.0,
          2939.0,
          2933.0,
          2940.0,
          2928.0,
          2954.0,
          2942.0,
          2931.0,
          2929.0,
          2928.0,
          2930.0,
          2932.0,
          2930.0,
          2937.0,
          2936.0,
