{
  "aor": 0.0026876219512195123,
  "aqi": 0.004199673780487805,
  "bids_meta": {
    "AcquisitionMatrixPE": 96,
    "AcquisitionNumber": 1,
    "AcquisitionTime": "17:13:6.402500",
    "BandwidthPerPixelPhaseEncode": 52.083,
    "BaseResolution": 96,
    "BodyPartExamined": "HEAD",
    "ConversionSoftware": "dcm2niix",
    "ConversionSoftwareVersion": "v1.0.20180622 GCC6.3.0",
    "DerivedVendorReportedEchoSpacing": 0.000600004,
    "DeviceSerialNumber": "18926",
    "DwellTime": 2.6e-06,
    "EchoTime": 0.025,
    "EffectiveEchoSpacing": 0.000200001,
    "FlipAngle": 50,
    "ImageOrientationPatientDICOM": [
      0.999992,
      0.000811021,
      0.0040232,
      2.21017e-10,
      0.98028,
      -0.197611
    ],
    "ImageType": [
      "ORIGINAL",
      "PRIMARY",
      "M",
      "ND",
      "ECHO",
      "00",
      "MOSAIC"
    ],
    "InPlanePhaseEncodingDirectionDICOM": "ROW",
    "InstitutionName": "NIMH",
    "InstitutionalDepartmentName": "Department",
    "MRAcquisitionType": "2D",
    "MagneticFieldStrength": 6.98,
    "Manufacturer": "Siemens",
    "ManufacturersModelName": "Investigational_Device_7T",
    "Modality": "MR",
    "ParallelReductionFactorInPlane": 3,
    "PartialFourier": 1,
    "PatientPosition": "HFS",
    "PercentPhaseFOV": 100,
    "PhaseEncodingDirection": "i",
    "PhaseEncodingSteps": 94,
    "PhaseResolution": 1,
    "PixelBandwidth": 2003,
    "ProcedureStepDescription": "MRI_Procedure_Limited",
    "ProtocolName": "NIH_EPI_2.0iso_TR2_Run08",
    "PulseSequenceDetails": "%CustomerSeq%_inati_nih_epi",
    "ReceiveCoilName": "32Ch_Head_7T",
    "ReconMatrixPE": 96,
    "RepetitionTime": 2,
    "SAR": 0.0696005,
    "ScanningSequence": "EP",
    "SequenceName": "epfid2d1_96",
    "SequenceVariant": "SK",
    "SeriesDescription": "NIH_EPI_2.0iso_TR2_Run08",
    "SeriesNumber": 12,
    "ShimSetting": [
      -54,
      274,
      831,
      868,
      -231,
      975,
      388,
      -502
    ],
    "SliceThickness": 2,
    "SliceTiming": [
      1.0025,
      0,
      1.04,
      0.035,
      1.0775,
      0.0725,
      1.115,
      0.11,
      1.1525,
      0.1475,
      1.1875,
      0.185,
      1.225,
      0.2225,
      1.2625,
      0.26,
      1.3,
      0.2975,
      1.3375,
      0.3325,
      1.375,
      0.37,
      1.4125,
      0.4075,
      1.45,
      0.445,
      1.485,
      0.4825,
      1.5225,
      0.52,
      1.56,
      0.5575,
      1.5975,
      0.595,
      1.635,
      0.63,
      1.6725,
      0.6675,
      1.71,
      0.705,
      1.7475,
      0.7425,
      1.7825,
      0.78,
      1.82,
      0.8175,
      1.8575,
      0.855,
      1.895,
      0.8925,
      1.9325,
      0.9275,
      1.97,
      0.965
    ],
    "SoftwareVersions": "syngo_MR_B17",
    "SpacingBetweenSlices": 2,
    "StationName": "FMRIFD7T",
    "TaskName": "HalfFovNoTask",
    "TotalReadoutTime": 0.0190001,
    "TxRefAmp": 321,
    "dataset": "ds001555",
    "dcmmeta_affine": [
      [
        -1.9999831914901733,
        4.4203418703148145e-10,
        0.008208253420889378,
        95.76705169677734
      ],
      [
        -0.0016220425022765994,
        1.960560917854309,
        -0.3952191174030304,
        -55.294212341308594
      ],
      [
        0.008046390488743782,
        0.39522242546081543,
        1.960544466972351,
        -48.509117126464844
      ],
      [
        0.0,
        0.0,
        0.0,
        1.0
      ]
    ],
    "dcmmeta_reorient_transform": [
      [
        0.0,
        -1.0,
        0.0,
        95.0
      ],
      [
        1.0,
        0.0,
        0.0,
        0.0
      ],
      [
        0.0,
        0.0,
        1.0,
        0.0
      ],
      [
        0.0,
        0.0,
        0.0,
        1.0
      ]
    ],
    "dcmmeta_shape": [
      96,
      96,
      54,
      164
    ],
    "dcmmeta_slice_dim": 2,
    "dcmmeta_version": 0.6,
    "global": {
      "const": {
        "AcquisitionMatrix": [
          0,
          96,
          96,
          0
        ],
        "Allergies": "No Known Allergies",
        "AngioFlag": "N",
        "BitsAllocated": 16,
        "BitsStored": 12,
        "BodyPartExamined": "HEAD",
        "Columns": 768,
        "EchoNumbers": 1,
        "EchoTime": 25.0,
        "EchoTrainLength": 1,
        "FlipAngle": 50.0,
        "HighBit": 11,
        "ImageOrientationPatient": [
          0.99999157803651,
          0.00081102126218,
          0.0040231953173,
          2.210171e-10,
          0.9802804733507,
          -0.1976112182224
        ],
        "ImagePositionPatient": [
          -767.7613927826,
          -790.25256366957,
          119.1281658306
        ],
        "ImageType": [
          "ORIGINAL",
          "PRIMARY",
          "M",
          "ND",
          "ECHO_00",
          "MOSAIC"
        ],
        "ImagedNucleus": "1H",
        "ImagingFrequency": 297.205061,
        "InPlanePhaseEncodingDirection": "ROW",
        "LargestImagePixelValue": 4095,
        "MRAcquisitionType": "2D",
        "MagneticFieldStrength": 6.98,
        "Manufacturer": "SIEMENS",
        "ManufacturerModelName": "Investigational_Device_7T",
        "Modality": "MR",
        "NumberOfAverages": 1.0,
        "NumberOfPhaseEncodingSteps": 94,
        "PercentPhaseFieldOfView": 100.0,
        "PercentSampling": 100.0,
        "PerformedProcedureStepStartTime": "160630.465000",
        "PhotometricInterpretation": "MONOCHROME2",
        "PixelBandwidth": 2003.0,
        "PixelRepresentation": 0,
        "PixelSpacing": [
          2.0,
          2.0
        ],
        "PositionReferenceIndicator": "",
        "ProcedureCodeSequence": [
          {
            "CodeMeaning": "MRI Procedure Limited",
            "CodeValue": "MI01491",
            "CodingSchemeDesignator": "USA Standard",
            "ContextIdentifier": "4000133397"
          }
        ],
        "ProtocolName": "NIH_EPI_2.0iso_TR2_Run08",
        "ReferencedStudySequence": [
          {
            "ReferencedSOPClassUID": "1.2.840.10008.3.1.2.3.1",
            "ReferencedSOPInstanceUID": "1.2.840.113564.9.1.2787814059.53.2.5000099247"
          }
        ],
        "RepetitionTime": 2000.0,
        "RequestedProcedureCodeSequence": [
          {
            "CodeMeaning": "MRI Procedure Limited",
            "CodeValue": "MI01491",
            "CodingSchemeDesignator": "USA Standard",
            "ContextIdentifier": "4000133397"
          }
        ],
        "RequestingService": "NIMH Molecular Imaging Branch",
        "Rows": 768,
        "SAR": 0.06960045299858,
        "SamplesPerPixel": 1,
        "ScanningSequence": "EP",
        "SequenceName": "epfid2d1_96",
        "SequenceVariant": "SK",
        "SeriesDescription": "NIH_EPI_2.0iso_TR2_Run08",
        "SeriesNumber": 12,
        "SliceLocation": -36.232435293683,
        "SliceThickness": 2.0,
        "SmallestImagePixelValue": 0,
        "SoftwareVersions": "syngo MR B17",
        "SpacingBetweenSlices": 2.0000000022588,
        "TransmitCoilName": "32Ch_Head_7T",
        "VariableFlipAngleFlag": "N",
        "WindowCenterWidthExplanation": "Algo1",
        "dBdt": 0.0
      },
      "slices": {}
    },
    "modality": "bold",
    "run_id": 9,
    "session_id": "12",
    "subject_id": "001",
    "task_id": "HalfFovNoTask",
    "time": {
      "samples": {
        "AcquisitionNumber": [
          1,
          2,
          3,
          4,
          5,
          6,
          7,
          8,
          9,
          10,
          11,
          12,
          13,
          14,
          15,
          16,
          17,
          18,
          19,
          20,
          21,
          22,
          23,
          24,
          25,
          26,
          27,
          28,
          29,
          30,
          31,
          32,
          33,
          34,
          35,
          36,
          37,
          38,
          39,
          40,
          41,
          42,
          43,
          44,
          45,
          46,
          47,
          48,
          49,
          50,
          51,
          52,
          53,
          54,
          55,
          56,
          57,
          58,
          59,
          60,
          61,
          62,
          63,
          64,
          65,
          66,
          67,
          68,
          69,
          70,
          71,
          72,
          73,
          74,
          75,
          76,
          77,
          78,
          79,
          80,
          81,
          82,
          83,
          84,
          85,
          86,
          87,
          88,
          89,
          90,
          91,
          92,
          93,
          94,
          95,
          96,
          97,
          98,
          99,
          100,
          101,
          102,
          103,
          104,
          105,
          106,
          107,
          108,
          109,
          110,
          111,
          112,
          113,
          114,
          115,
          116,
          117,
          118,
          119,
          120,
          121,
          122,
          123,
          124,
          125,
          126,
          127,
          128,
          129,
          130,
          131,
          132,
          133,
          134,
          135,
          136,
          137,
          138,
          139,
          140,
          141,
          142,
          143,
          144,
          145,
          146,
          147,
          148,
          149,
          150,
          151,
          152,
          153,
          154,
          155,
          156,
          157,
          158,
          159,
          160,
          161,
          162,
          163,
          164
        ],
        "AcquisitionTime": [
          "171306.402500",
          "171310.420000",
          "171312.427500",
          "171314.435000",
          "171316.442500",
          "171318.450000",
          "171320.460000",
          "171322.467500",
          "171324.475000",
          "171326.482500",
          "171328.490000",
          "171330.500000",
          "171332.507500",
          "171334.515000",
          "171336.522500",
          "171338.532500",
          "171340.540000",
          "171342.547500",
          "171344.555000",
          "171346.562500",
          "171348.572500",
          "171350.580000",
          "171352.587500",
          "171354.595000",
          "171356.602500",
          "171358.612500",
          "171400.620000",
          "171402.627500",
          "171404.635000",
          "171406.645000",
          "171408.652500",
          "171410.660000",
          "171412.667500",
          "171414.675000",
          "171416.685000",
          "171418.692500",
          "171420.700000",
          "171422.707500",
          "171424.715000",
          "171426.725000",
          "171428.732500",
          "171430.740000",
          "171432.747500",
          "171434.757500",
          "171436.765000",
          "171438.772500",
          "171440.780000",
          "171442.787500",
          "171444.797500",
          "171446.805000",
          "171448.812500",
          "171450.820000",
          "171452.827500",
          "171454.837500",
          "171456.845000",
          "171458.852500",
          "171500.860000",
          "171502.867500",
          "171504.877500",
          "171506.885000",
          "171508.892500",
          "171510.900000",
          "171512.910000",
          "171514.917500",
          "171516.925000",
          "171518.932500",
          "171520.940000",
          "171522.950000",
          "171524.957500",
          "171526.965000",
          "171528.972500",
          "171530.980000",
          "171532.990000",
          "171534.997500",
          "171537.005000",
          "171539.012500",
          "171541.022500",
          "171543.030000",
          "171545.037500",
          "171547.045000",
          "171549.052500",
          "171551.062500",
          "171553.070000",
          "171555.077500",
          "171557.085000",
          "171559.092500",
          "171601.102500",
          "171603.110000",
          "171605.117500",
          "171607.125000",
          "171609.135000",
          "171611.142500",
          "171613.150000",
          "171615.157500",
          "171617.165000",
          "171619.175000",
          "171621.182500",
          "171623.190000",
          "171625.197500",
          "171627.205000",
          "171629.215000",
          "171631.222500",
          "171633.230000",
          "171635.237500",
          "171637.245000",
          "171639.255000",
          "171641.262500",
          "171643.270000",
          "171645.277500",
          "171647.287500",
          "171649.295000",
          "171651.302500",
          "171653.310000",
          "171655.317500",
          "171657.327500",
          "171659.335000",
          "171701.342500",
          "171703.350000",
          "171705.357500",
          "171707.367500",
          "171709.375000",
          "171711.382500",
          "171713.390000",
          "171715.400000",
          "171717.407500",
          "171719.415000",
          "171721.422500",
          "171723.430000",
          "171725.440000",
          "171727.447500",
          "171729.455000",
          "171731.462500",
          "171733.470000",
          "171735.480000",
          "171737.487500",
          "171739.495000",
          "171741.502500",
          "171743.512500",
          "171745.520000",
          "171747.527500",
          "171749.535000",
          "171751.542500",
          "171753.552500",
          "171755.560000",
          "171757.567500",
          "171759.575000",
          "171801.582500",
          "171803.592500",
          "171805.600000",
          "171807.607500",
          "171809.615000",
          "171811.622500",
          "171813.632500",
          "171815.640000",
          "171817.647500",
          "171819.655000",
          "171821.665000",
          "171823.672500",
          "171825.680000",
          "171827.687500",
          "171829.695000",
          "171831.705000",
          "171833.712500",
          "171835.720000"
        ],
        "ContentTime": [
          "171311.387000",
          "171351.371000",
          "171351.371000",
          "171351.371000",
          "171351.371000",
          "171351.371000",
          "171351.387000",
          "171351.402000",
          "171351.402000",
          "171351.402000",
          "171351.402000",
          "171351.402000",
          "171351.402000",
          "171351.418000",
          "171351.418000",
          "171351.418000",
          "171351.418000",
          "171351.418000",
          "171351.418000",
          "171351.418000",
          "171351.433000",
          "171431.371000",
          "171431.371000",
          "171431.371000",
          "171431.371000",
          "171431.371000",
          "171431.387000",
          "171431.387000",
          "171431.387000",
          "171431.387000",
          "171431.402000",
          "171431.402000",
          "171431.402000",
          "171431.402000",
          "171431.402000",
          "171431.402000",
          "171431.418000",
          "171431.418000",
          "171431.418000",
          "171431.418000",
          "171431.418000",
          "171511.371000",
          "171511.371000",
          "171511.371000",
          "171511.371000",
          "171511.387000",
          "171511.387000",
          "171511.387000",
          "171511.387000",
          "171511.387000",
          "171511.402000",
          "171511.402000",
          "171511.402000",
          "171511.402000",
          "171511.402000",
          "171511.402000",
          "171511.418000",
          "171511.418000",
          "171511.418000",
          "171511.418000",
          "171511.418000",
          "171551.371000",
          "171551.371000",
          "171551.371000",
          "171551.371000",
          "171551.371000",
          "171551.387000",
          "171551.387000",
          "171551.387000",
          "171551.387000",
          "171551.387000",
          "171551.387000",
          "171551.387000",
          "171551.402000",
          "171551.402000",
          "171551.402000",
          "171551.402000",
          "171551.402000",
          "171551.418000",
          "171551.418000",
          "171551.418000",
          "171631.371000",
          "171631.371000",
          "171631.371000",
          "171631.371000",
          "171631.371000",
          "171631.387000",
          "171631.387000",
          "171631.387000",
          "171631.387000",
          "171631.387000",
          "171631.387000",
          "171631.387000",
          "171631.402000",
          "171631.402000",
          "171631.402000",
          "171631.402000",
          "171631.402000",
          "171631.418000",
          "171631.418000",
          "171631.418000",
          "171711.371000",
          "171711.371000",
          "171711.371000",
          "171711.371000",
          "171711.371000",
          "171711.387000",
          "171711.387000",
          "171711.387000",
          "171711.387000",
          "171711.387000",
          "171711.387000",
          "171711.402000",
          "171711.402000",
          "171711.402000",
          "171711.402000",
          "171711.402000",
          "171711.402000",
          "171711.402000",
          "171711.418000",
          "171711.418000",
          "171751.371000",
          "171751.371000",
          "171751.371000",
          "171751.371000",
          "171751.371000",
          "171751.387000",
          "171751.387000",
          "171751.387000",
          "171751.387000",
          "171751.387000",
          "171751.387000",
          "171751.387000",
          "171751.402000",
          "171751.402000",
          "171751.402000",
          "171751.402000",
          "171751.402000",
          "171751.402000",
          "171751.418000",
          "171751.418000",
          "171831.371000",
          "171831.371000",
          "171831.387000",
          "171831.387000",
          "171831.387000",
          "171831.387000",
          "171831.387000",
          "171831.387000",
          "171831.402000",
          "171831.402000",
          "171831.402000",
          "171831.402000",
          "171831.402000",
          "171831.402000",
          "171831.418000",
          "171831.433000",
          "171831.433000",
          "171831.433000",
          "171831.433000",
          "171831.433000",
          "171836.137000",
          "171836.137000",
          "171836.137000"
        ],
        "InstanceCreationTime": [
          "171311.387000",
          "171351.371000",
          "171351.371000",
          "171351.371000",
          "171351.371000",
          "171351.371000",
          "171351.387000",
          "171351.402000",
          "171351.402000",
          "171351.402000",
          "171351.402000",
          "171351.402000",
          "171351.402000",
          "171351.418000",
          "171351.418000",
          "171351.418000",
          "171351.418000",
          "171351.418000",
          "171351.418000",
          "171351.418000",
          "171351.433000",
          "171431.371000",
          "171431.371000",
          "171431.371000",
          "171431.371000",
          "171431.371000",
          "171431.387000",
          "171431.387000",
          "171431.387000",
          "171431.387000",
          "171431.402000",
          "171431.402000",
          "171431.402000",
          "171431.402000",
          "171431.402000",
          "171431.402000",
          "171431.418000",
          "171431.418000",
          "171431.418000",
          "171431.418000",
          "171431.418000",
          "171511.371000",
          "171511.371000",
          "171511.371000",
          "171511.371000",
          "171511.387000",
          "171511.387000",
          "171511.387000",
          "171511.387000",
          "171511.387000",
          "171511.402000",
          "171511.402000",
          "171511.402000",
          "171511.402000",
          "171511.402000",
          "171511.402000",
          "171511.418000",
          "171511.418000",
          "171511.418000",
          "171511.418000",
          "171511.418000",
          "171551.371000",
          "171551.371000",
          "171551.371000",
          "171551.371000",
          "171551.371000",
          "171551.387000",
          "171551.387000",
          "171551.387000",
          "171551.387000",
          "171551.387000",
          "171551.387000",
          "171551.387000",
          "171551.402000",
          "171551.402000",
          "171551.402000",
          "171551.402000",
          "171551.402000",
          "171551.418000",
          "171551.418000",
          "171551.418000",
          "171631.371000",
          "171631.371000",
          "171631.371000",
          "171631.371000",
          "171631.371000",
          "171631.387000",
          "171631.387000",
          "171631.387000",
          "171631.387000",
          "171631.387000",
          "171631.387000",
          "171631.387000",
          "171631.402000",
          "171631.402000",
          "171631.402000",
          "171631.402000",
          "171631.402000",
          "171631.418000",
          "171631.418000",
          "171631.418000",
          "171711.371000",
          "171711.371000",
          "171711.371000",
          "171711.371000",
          "171711.371000",
          "171711.387000",
          "171711.387000",
          "171711.387000",
          "171711.387000",
          "171711.387000",
          "171711.387000",
          "171711.402000",
          "171711.402000",
          "171711.402000",
          "171711.402000",
          "171711.402000",
          "171711.402000",
          "171711.402000",
          "171711.418000",
          "171711.418000",
          "171751.371000",
          "171751.371000",
          "171751.371000",
          "171751.371000",
          "171751.371000",
          "171751.387000",
          "171751.387000",
          "171751.387000",
          "171751.387000",
          "171751.387000",
          "171751.387000",
          "171751.387000",
          "171751.402000",
          "171751.402000",
          "171751.402000",
          "171751.402000",
          "171751.402000",
          "171751.402000",
          "171751.418000",
          "171751.418000",
          "171831.371000",
          "171831.371000",
          "171831.387000",
          "171831.387000",
          "171831.387000",
          "171831.387000",
          "171831.387000",
          "171831.387000",
          "171831.402000",
          "171831.402000",
          "171831.402000",
          "171831.402000",
          "171831.402000",
          "171831.402000",
          "171831.418000",
          "171831.433000",
          "171831.433000",
          "171831.433000",
          "171831.433000",
          "171831.433000",
          "171836.137000",
          "171836.137000",
          "171836.137000"
        ],
        "InstanceNumber": [
          1,
          2,
          3,
          4,
          5,
          6,
          7,
          8,
          9,
          10,
          11,
          12,
          13,
          14,
          15,
          16,
          17,
          18,
          19,
          20,
          21,
          22,
          23,
          24,
          25,
          26,
          27,
          28,
          29,
          30,
          31,
          32,
          33,
          34,
          35,
          36,
          37,
          38,
          39,
          40,
          41,
          42,
          43,
          44,
          45,
          46,
          47,
          48,
          49,
          50,
          51,
          52,
          53,
          54,
          55,
          56,
          57,
          58,
          59,
          60,
          61,
          62,
          63,
          64,
          65,
          66,
          67,
          68,
          69,
          70,
          71,
          72,
          73,
          74,
          75,
          76,
          77,
          78,
          79,
          80,
          81,
          82,
          83,
          84,
          85,
          86,
          87,
          88,
          89,
          90,
          91,
          92,
          93,
          94,
          95,
          96,
          97,
          98,
          99,
          100,
          101,
          102,
          103,
          104,
          105,
          106,
          107,
          108,
          109,
          110,
          111,
          112,
          113,
          114,
          115,
          116,
          117,
          118,
          119,
          120,
          121,
          122,
          123,
          124,
          125,
          126,
          127,
          128,
          129,
          130,
          131,
          132,
          133,
          134,
          135,
          136,
          137,
          138,
          139,
          140,
          141,
          142,
          143,
          144,
          145,
          146,
          147,
          148,
          149,
          150,
          151,
          152,
          153,
          154,
          155,
          156,
          157,
          158,
          159,
          160,
          161,
          162,
          163,
          164
        ],
        "WindowCenter": [
          1230.0,
          1229.0,
          1226.0,
          1225.0,
          1224.0,
          1224.0,
          1225.0,
          1225.0,
          1226.0,
          1228.0,
          1227.0,
          1224.0,
          1224.0,
          1225.0,
          1229.0,
          1229.0,
          1228.0,
          1227.0,
          1224.0,
          1225.0,
          1226.0,
          1228.0,
          1225.0,
          1225.0,
          1226.0,
          1227.0,
          1228.0,
          1229.0,
          1228.0,
          1229.0,
          1229.0,
          1229.0,
          1230.0,
          1230.0,
          1230.0,
          1229.0,
          1229.0,
          1229.0,
          1229.0,
          1228.0,
          1227.0,
          1227.0,
          1229.0,
          1228.0,
          1225.0,
          1225.0,
          1227.0,
          1229.0,
          1231.0,
          1230.0,
          1228.0,
          1228.0,
          1230.0,
          1231.0,
          1231.0,
          1230.0,
          1229.0,
          1230.0,
          1229.0,
          1230.0,
          1232.0,
          1232.0,
          1230.0,
          1227.0,
          1224.0,
          1224.0,
          1225.0,
          1226.0,
          1225.0,
          1226.0,
          1227.0,
          1227.0,
          1227.0,
          1227.0,
          1227.0,
          1227.0,
          1228.0,
          1227.0,
          1227.0,
          1228.0,
          1230.0,
          1231.0,
          1231.0,
          1230.0,
          1228.0,
          1227.0,
          1227.0,
          1227.0,
          1227.0,
          1227.0,
          1227.0,
          1226.0,
          1228.0,
          1228.0,
          1227.0,
          1226.0,
          1225.0,
          1226.0,
          1228.0,
          1227.0,
          1225.0,
          1222.0,
          1223.0,
          1226.0,
          1229.0,
          1231.0,
          1230.0,
          1232.0,
          1234.0,
          1232.0,
          1231.0,
          1230.0,
          1231.0,
          1232.0,
          1233.0,
          1230.0,
          1229.0,
          1228.0,
          1226.0,
          1226.0,
          1226.0,
          1227.0,
          1226.0,
          1227.0,
          1226.0,
          1226.0,
          1225.0,
          1225.0,
          1224.0,
          1225.0,
          1225.0,
          1226.0,
          1228.0,
          1228.0,
          1226.0,
          1226.0,
          1225.0,
          1227.0,
          1227.0,
          1227.0,
          1226.0,
          1227.0,
          1229.0,
          1229.0,
          1228.0,
          1227.0,
          1227.0,
          1228.0,
          1228.0,
          1227.0,
          1226.0,
          1227.0,
          1228.0,
          1230.0,
          1232.0,
          1232.0,
          1230.0,
          1230.0,
          1232.0,
          1234.0,
          1231.0,
          1231.0,
          1230.0,
          1230.0
        ],
        "WindowWidth": [
          2880.0,
          2877.0,
          2870.0,
          2867.0,
          2865.0,
          2867.0,
          2868.0,
          2870.0,
          2873.0,
          2878.0,
          2874.0,
          2867.0,
          2868.0,
          2875.0,
          2881.0,
          2879.0,
          2878.0,
          2874.0,
          2869.0,
          2869.0,
          2874.0,
          2877.0,
          2872.0,
          2872.0,
          2873.0,
          2875.0,
          2881.0,
          2878.0,
          2879.0,
          2879.0,
          2879.0,
          2879.0,
          2880.0,
          2881.0,
          2878.0,
          2878.0,
          2879.0,
          2881.0,
          2879.0,
          2876.0,
          2874.0,
          2877.0,
          2880.0,
          2877.0,
          2869.0,
          2869.0,
          2874.0,
          2882.0,
          2884.0,
          2878.0,
          2876.0,
          2877.0,
          2882.0,
          2885.0,
          2884.0,
          2880.0,
          2879.0,
          2880.0,
          2880.0,
          2882.0,
          2885.0,
          2886.0,
          2878.0,
          2873.0,
          2866.0,
          2867.0,
          2867.0,
          2869.0,
          2870.0,
          2872.0,
          2874.0,
          2874.0,
          2874.0,
          2872.0,
          2873.0,
          2874.0,
          2874.0,
          2873.0,
          2873.0,
          2874.0,
          2877.0,
          2881.0,
