{
  "aor": 0.008485914634146342,
  "aqi": 0.005427932317073171,
  "bids_meta": {
    "AcquisitionMatrixPE": 96,
    "AcquisitionNumber": 1,
    "AcquisitionTime": "16:44:10.292500",
    "BandwidthPerPixelPhaseEncode": 52.083,
    "BaseResolution": 96,
    "BodyPartExamined": "HEAD",
    "ConversionSoftware": "dcm2niix",
    "ConversionSoftwareVersion": "v1.0.20180622 GCC6.3.0",
    "DerivedVendorReportedEchoSpacing": 0.000600004,
    "DeviceSerialNumber": "18926",
    "DwellTime": 2.6e-06,
    "EchoTime": 0.025,
    "EffectiveEchoSpacing": 0.000200001,
    "FlipAngle": 50,
    "ImageOrientationPatientDICOM": [
      0.999992,
      0.000811021,
      0.0040232,
      2.21017e-10,
      0.98028,
      -0.197611
    ],
    "ImageType": [
      "ORIGINAL",
      "PRIMARY",
      "M",
      "ND",
      "ECHO",
      "00",
      "MOSAIC"
    ],
    "InPlanePhaseEncodingDirectionDICOM": "ROW",
    "InstitutionName": "NIMH",
    "InstitutionalDepartmentName": "Department",
    "MRAcquisitionType": "2D",
    "MagneticFieldStrength": 6.98,
    "Manufacturer": "Siemens",
    "ManufacturersModelName": "Investigational_Device_7T",
    "Modality": "MR",
    "ParallelReductionFactorInPlane": 3,
    "PartialFourier": 1,
    "PatientPosition": "HFS",
    "PercentPhaseFOV": 100,
    "PhaseEncodingDirection": "i",
    "PhaseEncodingSteps": 94,
    "PhaseResolution": 1,
    "PixelBandwidth": 2003,
    "ProcedureStepDescription": "MRI_Procedure_Limited",
    "ProtocolName": "NIH_EPI_2.0iso_TR2_Run04",
    "PulseSequenceDetails": "%CustomerSeq%_inati_nih_epi",
    "ReceiveCoilName": "32Ch_Head_7T",
    "ReconMatrixPE": 96,
    "RepetitionTime": 2,
    "SAR": 0.0696005,
    "ScanningSequence": "EP",
    "SequenceName": "epfid2d1_96",
    "SequenceVariant": "SK",
    "SeriesDescription": "NIH_EPI_2.0iso_TR2_Run04",
    "SeriesNumber": 8,
    "ShimSetting": [
      -54,
      274,
      831,
      868,
      -231,
      975,
      388,
      -502
    ],
    "SliceThickness": 2,
    "SliceTiming": [
      1.0025,
      0,
      1.04,
      0.0375,
      1.0775,
      0.075,
      1.115,
      0.11,
      1.1525,
      0.1475,
      1.19,
      0.185,
      1.2275,
      0.2225,
      1.2625,
      0.26,
      1.3,
      0.2975,
      1.3375,
      0.335,
      1.375,
      0.3725,
      1.4125,
      0.4075,
      1.45,
      0.445,
      1.4875,
      0.4825,
      1.525,
      0.52,
      1.56,
      0.5575,
      1.5975,
      0.595,
      1.635,
      0.6325,
      1.6725,
      0.67,
      1.71,
      0.705,
      1.7475,
      0.7425,
      1.785,
      0.78,
      1.8225,
      0.8175,
      1.8575,
      0.855,
      1.895,
      0.8925,
      1.9325,
      0.93,
      1.97,
      0.9675
    ],
    "SoftwareVersions": "syngo_MR_B17",
    "SpacingBetweenSlices": 2,
    "StationName": "FMRIFD7T",
    "TaskName": "HalfFovNoTask",
    "TotalReadoutTime": 0.0190001,
    "TxRefAmp": 321,
    "dataset": "ds001555",
    "dcmmeta_affine": [
      [
        -1.9999831914901733,
        4.4203418703148145e-10,
        0.008208253420889378,
        95.76705169677734
      ],
      [
        -0.0016220425022765994,
        1.960560917854309,
        -0.3952191174030304,
        -55.294212341308594
      ],
      [
        0.008046390488743782,
        0.39522242546081543,
        1.960544466972351,
        -48.509117126464844
      ],
      [
        0.0,
        0.0,
        0.0,
        1.0
      ]
    ],
    "dcmmeta_reorient_transform": [
      [
        0.0,
        -1.0,
        0.0,
        95.0
      ],
      [
        1.0,
        0.0,
        0.0,
        0.0
      ],
      [
        0.0,
        0.0,
        1.0,
        0.0
      ],
      [
        0.0,
        0.0,
        0.0,
        1.0
      ]
    ],
    "dcmmeta_shape": [
      96,
      96,
      54,
      164
    ],
    "dcmmeta_slice_dim": 2,
    "dcmmeta_version": 0.6,
    "global": {
      "const": {
        "AcquisitionMatrix": [
          0,
          96,
          96,
          0
        ],
        "Allergies": "No Known Allergies",
        "AngioFlag": "N",
        "BitsAllocated": 16,
        "BitsStored": 12,
        "BodyPartExamined": "HEAD",
        "Columns": 768,
        "EchoNumbers": 1,
        "EchoTime": 25.0,
        "EchoTrainLength": 1,
        "FlipAngle": 50.0,
        "HighBit": 11,
        "ImageOrientationPatient": [
          0.99999157803651,
          0.00081102126218,
          0.0040231953173,
          2.210171e-10,
          0.9802804733507,
          -0.1976112182224
        ],
        "ImagePositionPatient": [
          -767.7613927826,
          -790.25256366957,
          119.1281658306
        ],
        "ImageType": [
          "ORIGINAL",
          "PRIMARY",
          "M",
          "ND",
          "ECHO_00",
          "MOSAIC"
        ],
        "ImagedNucleus": "1H",
        "ImagingFrequency": 297.205034,
        "InPlanePhaseEncodingDirection": "ROW",
        "LargestImagePixelValue": 4095,
        "MRAcquisitionType": "2D",
        "MagneticFieldStrength": 6.98,
        "Manufacturer": "SIEMENS",
        "ManufacturerModelName": "Investigational_Device_7T",
        "Modality": "MR",
        "NumberOfAverages": 1.0,
        "NumberOfPhaseEncodingSteps": 94,
        "PercentPhaseFieldOfView": 100.0,
        "PercentSampling": 100.0,
        "PerformedProcedureStepStartTime": "160630.465000",
        "PhotometricInterpretation": "MONOCHROME2",
        "PixelBandwidth": 2003.0,
        "PixelRepresentation": 0,
        "PixelSpacing": [
          2.0,
          2.0
        ],
        "PositionReferenceIndicator": "",
        "ProcedureCodeSequence": [
          {
            "CodeMeaning": "MRI Procedure Limited",
            "CodeValue": "MI01491",
            "CodingSchemeDesignator": "USA Standard",
            "ContextIdentifier": "4000133397"
          }
        ],
        "ProtocolName": "NIH_EPI_2.0iso_TR2_Run04",
        "ReferencedStudySequence": [
          {
            "ReferencedSOPClassUID": "1.2.840.10008.3.1.2.3.1",
            "ReferencedSOPInstanceUID": "1.2.840.113564.9.1.2787814059.53.2.5000099247"
          }
        ],
        "RepetitionTime": 2000.0,
        "RequestedProcedureCodeSequence": [
          {
            "CodeMeaning": "MRI Procedure Limited",
            "CodeValue": "MI01491",
            "CodingSchemeDesignator": "USA Standard",
            "ContextIdentifier": "4000133397"
          }
        ],
        "RequestingService": "NIMH Molecular Imaging Branch",
        "Rows": 768,
        "SAR": 0.06960045299858,
        "SamplesPerPixel": 1,
        "ScanningSequence": "EP",
        "SequenceName": "epfid2d1_96",
        "SequenceVariant": "SK",
        "SeriesDescription": "NIH_EPI_2.0iso_TR2_Run04",
        "SeriesNumber": 8,
        "SliceLocation": -36.232435293683,
        "SliceThickness": 2.0,
        "SmallestImagePixelValue": 0,
        "SoftwareVersions": "syngo MR B17",
        "SpacingBetweenSlices": 2.0000000022588,
        "TransmitCoilName": "32Ch_Head_7T",
        "VariableFlipAngleFlag": "N",
        "WindowCenterWidthExplanation": "Algo1",
        "dBdt": 0.0
      },
      "slices": {}
    },
    "modality": "bold",
    "run_id": 5,
    "session_id": "12",
    "subject_id": "001",
    "task_id": "HalfFovNoTask",
    "time": {
      "samples": {
        "AcquisitionNumber": [
          1,
          2,
          3,
          4,
          5,
          6,
          7,
          8,
          9,
          10,
          11,
          12,
          13,
          14,
          15,
          16,
          17,
          18,
          19,
          20,
          21,
          22,
          23,
          24,
          25,
          26,
          27,
          28,
          29,
          30,
          31,
          32,
          33,
          34,
          35,
          36,
          37,
          38,
          39,
          40,
          41,
          42,
          43,
          44,
          45,
          46,
          47,
          48,
          49,
          50,
          51,
          52,
          53,
          54,
          55,
          56,
          57,
          58,
          59,
          60,
          61,
          62,
          63,
          64,
          65,
          66,
          67,
          68,
          69,
          70,
          71,
          72,
          73,
          74,
          75,
          76,
          77,
          78,
          79,
          80,
          81,
          82,
          83,
          84,
          85,
          86,
          87,
          88,
          89,
          90,
          91,
          92,
          93,
          94,
          95,
          96,
          97,
          98,
          99,
          100,
          101,
          102,
          103,
          104,
          105,
          106,
          107,
          108,
          109,
          110,
          111,
          112,
          113,
          114,
          115,
          116,
          117,
          118,
          119,
          120,
          121,
          122,
          123,
          124,
          125,
          126,
          127,
          128,
          129,
          130,
          131,
          132,
          133,
          134,
          135,
          136,
          137,
          138,
          139,
          140,
          141,
          142,
          143,
          144,
          145,
          146,
          147,
          148,
          149,
          150,
          151,
          152,
          153,
          154,
          155,
          156,
          157,
          158,
          159,
          160,
          161,
          162,
          163,
          164
        ],
        "AcquisitionTime": [
          "164410.292500",
          "164414.310000",
          "164416.317500",
          "164418.325000",
          "164420.332500",
          "164422.342500",
          "164424.350000",
          "164426.357500",
          "164428.365000",
          "164430.375000",
          "164432.382500",
          "164434.390000",
          "164436.397500",
          "164438.405000",
          "164440.415000",
          "164442.422500",
          "164444.430000",
          "164446.437500",
          "164448.445000",
          "164450.455000",
          "164452.462500",
          "164454.470000",
          "164456.477500",
          "164458.485000",
          "164500.495000",
          "164502.502500",
          "164504.510000",
          "164506.517500",
          "164508.527500",
          "164510.535000",
          "164512.542500",
          "164514.550000",
          "164516.557500",
          "164518.567500",
          "164520.575000",
          "164522.582500",
          "164524.590000",
          "164526.597500",
          "164528.607500",
          "164530.615000",
          "164532.622500",
          "164534.630000",
          "164536.640000",
          "164538.647500",
          "164540.655000",
          "164542.662500",
          "164544.670000",
          "164546.680000",
          "164548.687500",
          "164550.695000",
          "164552.702500",
          "164554.710000",
          "164556.720000",
          "164558.727500",
          "164600.735000",
          "164602.742500",
          "164604.752500",
          "164606.760000",
          "164608.767500",
          "164610.775000",
          "164612.782500",
          "164614.792500",
          "164616.800000",
          "164618.807500",
          "164620.815000",
          "164622.822500",
          "164624.832500",
          "164626.840000",
          "164628.847500",
          "164630.855000",
          "164632.865000",
          "164634.872500",
          "164636.880000",
          "164638.887500",
          "164640.895000",
          "164642.905000",
          "164644.912500",
          "164646.920000",
          "164648.927500",
          "164650.935000",
          "164652.945000",
          "164654.952500",
          "164656.960000",
          "164658.967500",
          "164700.975000",
          "164702.985000",
          "164704.992500",
          "164707.000000",
          "164709.007500",
          "164711.017500",
          "164713.025000",
          "164715.032500",
          "164717.040000",
          "164719.047500",
          "164721.057500",
          "164723.065000",
          "164725.072500",
          "164727.080000",
          "164729.087500",
          "164731.097500",
          "164733.105000",
          "164735.112500",
          "164737.120000",
          "164739.130000",
          "164741.137500",
          "164743.145000",
          "164745.152500",
          "164747.160000",
          "164749.170000",
          "164751.177500",
          "164753.185000",
          "164755.192500",
          "164757.200000",
          "164759.210000",
          "164801.217500",
          "164803.225000",
          "164805.232500",
          "164807.242500",
          "164809.250000",
          "164811.257500",
          "164813.265000",
          "164815.272500",
          "164817.282500",
          "164819.290000",
          "164821.297500",
          "164823.305000",
          "164825.312500",
          "164827.322500",
          "164829.330000",
          "164831.337500",
          "164833.345000",
          "164835.352500",
          "164837.362500",
          "164839.370000",
          "164841.377500",
          "164843.385000",
          "164845.395000",
          "164847.402500",
          "164849.410000",
          "164851.417500",
          "164853.425000",
          "164855.435000",
          "164857.442500",
          "164859.450000",
          "164901.457500",
          "164903.465000",
          "164905.475000",
          "164907.482500",
          "164909.490000",
          "164911.497500",
          "164913.507500",
          "164915.515000",
          "164917.522500",
          "164919.530000",
          "164921.537500",
          "164923.547500",
          "164925.555000",
          "164927.562500",
          "164929.570000",
          "164931.577500",
          "164933.587500",
          "164935.595000",
          "164937.602500",
          "164939.610000"
        ],
        "ContentTime": [
          "164503.840000",
          "164503.855000",
          "164503.855000",
          "164503.855000",
          "164503.855000",
          "164503.855000",
          "164503.871000",
          "164503.871000",
          "164503.871000",
          "164503.871000",
          "164503.871000",
          "164503.871000",
          "164503.871000",
          "164503.887000",
          "164503.887000",
          "164503.902000",
          "164503.902000",
          "164503.902000",
          "164503.902000",
          "164503.902000",
          "164503.902000",
          "164503.902000",
          "164503.918000",
          "164503.918000",
          "164503.918000",
          "164543.840000",
          "164543.840000",
          "164543.840000",
          "164543.855000",
          "164543.855000",
          "164543.855000",
          "164543.855000",
          "164543.855000",
          "164543.855000",
          "164543.871000",
          "164543.871000",
          "164543.871000",
          "164543.871000",
          "164543.871000",
          "164543.871000",
          "164543.871000",
          "164543.887000",
          "164543.887000",
          "164543.887000",
          "164543.887000",
          "164623.840000",
          "164623.840000",
          "164623.840000",
          "164623.840000",
          "164623.840000",
          "164623.855000",
          "164623.855000",
          "164623.871000",
          "164623.871000",
          "164623.871000",
          "164623.871000",
          "164623.887000",
          "164623.887000",
          "164623.887000",
          "164623.887000",
          "164623.902000",
          "164623.902000",
          "164623.902000",
          "164623.902000",
          "164623.902000",
          "164703.840000",
          "164703.840000",
          "164703.840000",
          "164703.840000",
          "164703.855000",
          "164703.855000",
          "164703.855000",
          "164703.855000",
          "164703.855000",
          "164703.871000",
          "164703.871000",
          "164703.871000",
          "164703.871000",
          "164703.871000",
          "164703.871000",
          "164703.871000",
          "164703.887000",
          "164703.887000",
          "164703.887000",
          "164703.887000",
          "164743.840000",
          "164743.855000",
          "164743.855000",
          "164743.855000",
          "164743.855000",
          "164743.855000",
          "164743.855000",
          "164743.855000",
          "164743.871000",
          "164743.871000",
          "164743.871000",
          "164743.871000",
          "164743.887000",
          "164743.887000",
          "164743.887000",
          "164743.887000",
          "164743.887000",
          "164743.887000",
          "164743.902000",
          "164743.902000",
          "164823.840000",
          "164823.840000",
          "164823.840000",
          "164823.840000",
          "164823.855000",
          "164823.855000",
          "164823.855000",
          "164823.855000",
          "164823.855000",
          "164823.855000",
          "164823.855000",
          "164823.871000",
          "164823.871000",
          "164823.887000",
          "164823.887000",
          "164823.887000",
          "164823.887000",
          "164823.887000",
          "164823.887000",
          "164823.887000",
          "164903.840000",
          "164903.840000",
          "164903.840000",
          "164903.840000",
          "164903.840000",
          "164903.855000",
          "164903.855000",
          "164903.855000",
          "164903.855000",
          "164903.855000",
          "164903.855000",
          "164903.871000",
          "164903.871000",
          "164903.871000",
          "164903.871000",
          "164903.871000",
          "164903.871000",
          "164903.887000",
          "164903.887000",
          "164903.887000",
          "164940.793000",
          "164940.808000",
          "164940.808000",
          "164940.808000",
          "164940.824000",
          "164940.824000",
          "164940.840000",
          "164940.840000",
          "164940.840000",
          "164940.840000",
          "164940.840000",
          "164940.840000",
          "164940.840000",
          "164940.855000",
          "164940.855000",
          "164940.855000",
          "164940.855000",
          "164940.855000",
          "164940.855000"
        ],
        "InstanceCreationTime": [
          "164503.840000",
          "164503.855000",
          "164503.855000",
          "164503.855000",
          "164503.855000",
          "164503.855000",
          "164503.871000",
          "164503.871000",
          "164503.871000",
          "164503.871000",
          "164503.871000",
          "164503.871000",
          "164503.871000",
          "164503.887000",
          "164503.887000",
          "164503.902000",
          "164503.902000",
          "164503.902000",
          "164503.902000",
          "164503.902000",
          "164503.902000",
          "164503.902000",
          "164503.918000",
          "164503.918000",
          "164503.918000",
          "164543.840000",
          "164543.840000",
          "164543.840000",
          "164543.855000",
          "164543.855000",
          "164543.855000",
          "164543.855000",
          "164543.855000",
          "164543.855000",
          "164543.871000",
          "164543.871000",
          "164543.871000",
          "164543.871000",
          "164543.871000",
          "164543.871000",
          "164543.871000",
          "164543.887000",
          "164543.887000",
          "164543.887000",
          "164543.887000",
          "164623.840000",
          "164623.840000",
          "164623.840000",
          "164623.840000",
          "164623.840000",
          "164623.855000",
          "164623.855000",
          "164623.871000",
          "164623.871000",
          "164623.871000",
          "164623.871000",
          "164623.887000",
          "164623.887000",
          "164623.887000",
          "164623.887000",
          "164623.902000",
          "164623.902000",
          "164623.902000",
          "164623.902000",
          "164623.902000",
          "164703.840000",
          "164703.840000",
          "164703.840000",
          "164703.840000",
          "164703.855000",
          "164703.855000",
          "164703.855000",
          "164703.855000",
          "164703.855000",
          "164703.871000",
          "164703.871000",
          "164703.871000",
          "164703.871000",
          "164703.871000",
          "164703.871000",
          "164703.871000",
          "164703.887000",
          "164703.887000",
          "164703.887000",
          "164703.887000",
          "164743.840000",
          "164743.855000",
          "164743.855000",
          "164743.855000",
          "164743.855000",
          "164743.855000",
          "164743.855000",
          "164743.855000",
          "164743.871000",
          "164743.871000",
          "164743.871000",
          "164743.871000",
          "164743.887000",
          "164743.887000",
          "164743.887000",
          "164743.887000",
          "164743.887000",
          "164743.887000",
          "164743.902000",
          "164743.902000",
          "164823.840000",
          "164823.840000",
          "164823.840000",
          "164823.840000",
          "164823.855000",
          "164823.855000",
          "164823.855000",
          "164823.855000",
          "164823.855000",
          "164823.855000",
          "164823.855000",
          "164823.871000",
          "164823.871000",
          "164823.887000",
          "164823.887000",
          "164823.887000",
          "164823.887000",
          "164823.887000",
          "164823.887000",
          "164823.887000",
          "164903.840000",
          "164903.840000",
          "164903.840000",
          "164903.840000",
          "164903.840000",
          "164903.855000",
          "164903.855000",
          "164903.855000",
          "164903.855000",
          "164903.855000",
          "164903.855000",
          "164903.871000",
          "164903.871000",
          "164903.871000",
          "164903.871000",
          "164903.871000",
          "164903.871000",
          "164903.887000",
          "164903.887000",
          "164903.887000",
          "164940.793000",
          "164940.808000",
          "164940.808000",
          "164940.808000",
          "164940.824000",
          "164940.824000",
          "164940.840000",
          "164940.840000",
          "164940.840000",
          "164940.840000",
          "164940.840000",
          "164940.840000",
          "164940.840000",
          "164940.855000",
          "164940.855000",
          "164940.855000",
          "164940.855000",
          "164940.855000",
          "164940.855000"
        ],
        "InstanceNumber": [
          1,
          2,
          3,
          4,
          5,
          6,
          7,
          8,
          9,
          10,
          11,
          12,
          13,
          14,
          15,
          16,
          17,
          18,
          19,
          20,
          21,
          22,
          23,
          24,
          25,
          26,
          27,
          28,
          29,
          30,
          31,
          32,
          33,
          34,
          35,
          36,
          37,
          38,
          39,
          40,
          41,
          42,
          43,
          44,
          45,
          46,
          47,
          48,
          49,
          50,
          51,
          52,
          53,
          54,
          55,
          56,
          57,
          58,
          59,
          60,
          61,
          62,
          63,
          64,
          65,
          66,
          67,
          68,
          69,
          70,
          71,
          72,
          73,
          74,
          75,
          76,
          77,
          78,
          79,
          80,
          81,
          82,
          83,
          84,
          85,
          86,
          87,
          88,
          89,
          90,
          91,
          92,
          93,
          94,
          95,
          96,
          97,
          98,
          99,
          100,
          101,
          102,
          103,
          104,
          105,
          106,
          107,
          108,
          109,
          110,
          111,
          112,
          113,
          114,
          115,
          116,
          117,
          118,
          119,
          120,
          121,
          122,
          123,
          124,
          125,
          126,
          127,
          128,
          129,
          130,
          131,
          132,
          133,
          134,
          135,
          136,
          137,
          138,
          139,
          140,
          141,
          142,
          143,
          144,
          145,
          146,
          147,
          148,
          149,
          150,
          151,
          152,
          153,
          154,
          155,
          156,
          157,
          158,
          159,
          160,
          161,
          162,
          163,
          164
        ],
        "WindowCenter": [
          1228.0,
          1229.0,
          1229.0,
          1227.0,
          1225.0,
          1226.0,
          1227.0,
          1227.0,
          1227.0,
          1225.0,
          1225.0,
          1224.0,
          1225.0,
          1225.0,
          1224.0,
          1223.0,
          1223.0,
          1226.0,
          1226.0,
          1226.0,
          1225.0,
          1224.0,
          1226.0,
          1226.0,
          1228.0,
          1228.0,
          1228.0,
          1229.0,
          1227.0,
          1226.0,
          1225.0,
          1224.0,
          1224.0,
          1224.0,
          1223.0,
          1224.0,
          1224.0,
          1223.0,
          1222.0,
          1221.0,
          1222.0,
          1223.0,
          1227.0,
          1227.0,
          1225.0,
          1225.0,
          1229.0,
          1229.0,
          1225.0,
          1224.0,
          1224.0,
          1225.0,
          1226.0,
          1227.0,
          1225.0,
          1223.0,
          1223.0,
          1224.0,
          1226.0,
          1226.0,
          1225.0,
          1225.0,
          1225.0,
          1226.0,
          1226.0,
          1226.0,
          1228.0,
          1228.0,
          1227.0,
          1225.0,
          1226.0,
          1228.0,
          1228.0,
          1227.0,
          1226.0,
          1227.0,
          1227.0,
          1226.0,
          1226.0,
          1226.0,
          1227.0,
          1226.0,
          1226.0,
          1225.0,
          1224.0,
          1224.0,
          1225.0,
          1225.0,
          1226.0,
          1227.0,
          1226.0,
          1227.0,
          1229.0,
          1230.0,
          1229.0,
          1228.0,
          1227.0,
          1226.0,
          1226.0,
          1224.0,
          1224.0,
          1223.0,
          1223.0,
          1222.0,
          1223.0,
          1224.0,
          1225.0,
          1225.0,
          1226.0,
          1228.0,
          1227.0,
          1224.0,
          1224.0,
          1224.0,
          1223.0,
          1224.0,
          1225.0,
          1226.0,
          1226.0,
          1225.0,
          1223.0,
          1221.0,
          1220.0,
          1224.0,
          1226.0,
          1227.0,
          1224.0,
          1221.0,
          1220.0,
          1219.0,
          1221.0,
          1223.0,
          1225.0,
          1224.0,
          1223.0,
          1226.0,
          1227.0,
          1229.0,
          1229.0,
          1230.0,
          1234.0,
          1236.0,
          1232.0,
          1226.0,
          1221.0,
          1218.0,
          1219.0,
          1221.0,
          1225.0,
          1228.0,
          1228.0,
          1230.0,
          1230.0,
          1231.0,
          1230.0,
          1229.0,
          1228.0,
          1228.0,
          1233.0,
          1232.0,
          1228.0,
          1225.0,
          1224.0,
          1225.0
        ],
        "WindowWidth": [
          2882.0,
          2885.0,
          2886.0,
          2880.0,
          2877.0,
          2878.0,
          2881.0,
          2881.0,
          2880.0,
          2875.0,
          2874.0,
          2875.0,
          2875.0,
          2872.0,
          2870.0,
          2870.0,
          2872.0,
          2877.0,
          2877.0,
          2874.0,
          2874.0,
          2875.0,
          2878.0,
          2880.0,
          2882.0,
          2884.0,
          2884.0,
          2887.0,
          2882.0,
          2879.0,
          2877.0,
          2876.0,
          2875.0,
          2876.0,
          2876.0,
          2874.0,
          2873.0,
          2872.0,
          2869.0,
          2867.0,
          2870.0,
          2875.0,
          2880.0,
          2882.0,
          2879.0,
          2880.0,
          2885.0,
          2885.0,
          2876.0,
          2871.0,
          2874.0,
          2881.0,
          2884.0,
          2879.0,
          2874.0,
          2870.0,
          2872.0,
          2876.0,
          2880.0,
          2879.0,
          2876.0,
          2877.0,
          2879.0,
          2877.0,
          2879.0,
          2881.0,
          2883.0,
          2883.0,
          2880.0,
          2877.0,
          2882.0,
          2885.0,
          2883.0,
          2882.0,
          2882.0,
          2884.0,
          2882.0,
          2882.0,
          2881.0,
          2883.0,
          2883.0,
          2881.0,
