{
  "aor": 0.0010778658536585366,
  "aqi": 0.003725798597560976,
  "bids_meta": {
    "AcquisitionMatrixPE": 96,
    "AcquisitionNumber": 1,
    "AcquisitionTime": "17:33:40.967500",
    "BandwidthPerPixelPhaseEncode": 52.083,
    "BaseResolution": 96,
    "BodyPartExamined": "HEAD",
    "ConversionSoftware": "dcm2niix",
    "ConversionSoftwareVersion": "v1.0.20180622 GCC6.3.0",
    "DerivedVendorReportedEchoSpacing": 0.000600004,
    "DeviceSerialNumber": "18926",
    "DwellTime": 2.6e-06,
    "EchoTime": 0.025,
    "EffectiveEchoSpacing": 0.000200001,
    "FlipAngle": 50,
    "ImageOrientationPatientDICOM": [
      0.999992,
      0.000811021,
      0.0040232,
      2.21017e-10,
      0.98028,
      -0.197611
    ],
    "ImageType": [
      "ORIGINAL",
      "PRIMARY",
      "M",
      "ND",
      "ECHO",
      "00",
      "MOSAIC"
    ],
    "InPlanePhaseEncodingDirectionDICOM": "ROW",
    "InstitutionName": "NIMH",
    "InstitutionalDepartmentName": "Department",
    "MRAcquisitionType": "2D",
    "MagneticFieldStrength": 6.98,
    "Manufacturer": "Siemens",
    "ManufacturersModelName": "Investigational_Device_7T",
    "Modality": "MR",
    "ParallelReductionFactorInPlane": 3,
    "PartialFourier": 1,
    "PatientPosition": "HFS",
    "PercentPhaseFOV": 100,
    "PhaseEncodingDirection": "i",
    "PhaseEncodingSteps": 94,
    "PhaseResolution": 1,
    "PixelBandwidth": 2003,
    "ProcedureStepDescription": "MRI_Procedure_Limited",
    "ProtocolName": "NIH_EPI_2.0iso_TR2_Run11",
    "PulseSequenceDetails": "%CustomerSeq%_inati_nih_epi",
    "ReceiveCoilName": "32Ch_Head_7T",
    "ReconMatrixPE": 96,
    "RepetitionTime": 2,
    "SAR": 0.0696005,
    "ScanningSequence": "EP",
    "SequenceName": "epfid2d1_96",
    "SequenceVariant": "SK",
    "SeriesDescription": "NIH_EPI_2.0iso_TR2_Run11",
    "SeriesNumber": 15,
    "ShimSetting": [
      -54,
      274,
      831,
      868,
      -231,
      975,
      388,
      -502
    ],
    "SliceThickness": 2,
    "SliceTiming": [
      1.005,
      0,
      1.0425,
      0.0375,
      1.08,
      0.075,
      1.1175,
      0.1125,
      1.155,
      0.15,
      1.19,
      0.1875,
      1.2275,
      0.225,
      1.265,
      0.2625,
      1.3025,
      0.2975,
      1.34,
      0.335,
      1.3775,
      0.3725,
      1.415,
      0.41,
      1.45,
      0.4475,
      1.4875,
      0.485,
      1.525,
      0.5225,
      1.5625,
      0.56,
      1.6,
      0.595,
      1.6375,
      0.6325,
      1.675,
      0.67,
      1.7125,
      0.7075,
      1.7475,
      0.745,
      1.785,
      0.7825,
      1.8225,
      0.82,
      1.86,
      0.8575,
      1.8975,
      0.8925,
      1.935,
      0.93,
      1.9725,
      0.9675
    ],
    "SoftwareVersions": "syngo_MR_B17",
    "SpacingBetweenSlices": 2,
    "StationName": "FMRIFD7T",
    "TaskName": "HalfFovNoTask",
    "TotalReadoutTime": 0.0190001,
    "TxRefAmp": 321,
    "dataset": "ds001555",
    "dcmmeta_affine": [
      [
        -1.9999831914901733,
        4.4203418703148145e-10,
        0.008208253420889378,
        95.76705169677734
      ],
      [
        -0.0016220425022765994,
        1.960560917854309,
        -0.3952191174030304,
        -55.294212341308594
      ],
      [
        0.008046390488743782,
        0.39522242546081543,
        1.960544466972351,
        -48.509117126464844
      ],
      [
        0.0,
        0.0,
        0.0,
        1.0
      ]
    ],
    "dcmmeta_reorient_transform": [
      [
        0.0,
        -1.0,
        0.0,
        95.0
      ],
      [
        1.0,
        0.0,
        0.0,
        0.0
      ],
      [
        0.0,
        0.0,
        1.0,
        0.0
      ],
      [
        0.0,
        0.0,
        0.0,
        1.0
      ]
    ],
    "dcmmeta_shape": [
      96,
      96,
      54,
      164
    ],
    "dcmmeta_slice_dim": 2,
    "dcmmeta_version": 0.6,
    "global": {
      "const": {
        "AcquisitionMatrix": [
          0,
          96,
          96,
          0
        ],
        "Allergies": "No Known Allergies",
        "AngioFlag": "N",
        "BitsAllocated": 16,
        "BitsStored": 12,
        "BodyPartExamined": "HEAD",
        "Columns": 768,
        "EchoNumbers": 1,
        "EchoTime": 25.0,
        "EchoTrainLength": 1,
        "FlipAngle": 50.0,
        "HighBit": 11,
        "ImageOrientationPatient": [
          0.99999157803651,
          0.00081102126218,
          0.0040231953173,
          2.210171e-10,
          0.9802804733507,
          -0.1976112182224
        ],
        "ImagePositionPatient": [
          -767.7613927826,
          -790.25256366957,
          119.1281658306
        ],
        "ImageType": [
          "ORIGINAL",
          "PRIMARY",
          "M",
          "ND",
          "ECHO_00",
          "MOSAIC"
        ],
        "ImagedNucleus": "1H",
        "ImagingFrequency": 297.205077,
        "InPlanePhaseEncodingDirection": "ROW",
        "LargestImagePixelValue": 4095,
        "MRAcquisitionType": "2D",
        "MagneticFieldStrength": 6.98,
        "Manufacturer": "SIEMENS",
        "ManufacturerModelName": "Investigational_Device_7T",
        "Modality": "MR",
        "NumberOfAverages": 1.0,
        "NumberOfPhaseEncodingSteps": 94,
        "PercentPhaseFieldOfView": 100.0,
        "PercentSampling": 100.0,
        "PerformedProcedureStepStartTime": "160630.465000",
        "PhotometricInterpretation": "MONOCHROME2",
        "PixelBandwidth": 2003.0,
        "PixelRepresentation": 0,
        "PixelSpacing": [
          2.0,
          2.0
        ],
        "PositionReferenceIndicator": "",
        "ProcedureCodeSequence": [
          {
            "CodeMeaning": "MRI Procedure Limited",
            "CodeValue": "MI01491",
            "CodingSchemeDesignator": "USA Standard",
            "ContextIdentifier": "4000133397"
          }
        ],
        "ProtocolName": "NIH_EPI_2.0iso_TR2_Run11",
        "ReferencedStudySequence": [
          {
            "ReferencedSOPClassUID": "1.2.840.10008.3.1.2.3.1",
            "ReferencedSOPInstanceUID": "1.2.840.113564.9.1.2787814059.53.2.5000099247"
          }
        ],
        "RepetitionTime": 2000.0,
        "RequestedProcedureCodeSequence": [
          {
            "CodeMeaning": "MRI Procedure Limited",
            "CodeValue": "MI01491",
            "CodingSchemeDesignator": "USA Standard",
            "ContextIdentifier": "4000133397"
          }
        ],
        "RequestingService": "NIMH Molecular Imaging Branch",
        "Rows": 768,
        "SAR": 0.06960045299858,
        "SamplesPerPixel": 1,
        "ScanningSequence": "EP",
        "SequenceName": "epfid2d1_96",
        "SequenceVariant": "SK",
        "SeriesDescription": "NIH_EPI_2.0iso_TR2_Run11",
        "SeriesNumber": 15,
        "SliceLocation": -36.232435293683,
        "SliceThickness": 2.0,
        "SmallestImagePixelValue": 0,
        "SoftwareVersions": "syngo MR B17",
        "SpacingBetweenSlices": 2.0000000022588,
        "TransmitCoilName": "32Ch_Head_7T",
        "VariableFlipAngleFlag": "N",
        "WindowCenterWidthExplanation": "Algo1",
        "dBdt": 0.0
      },
      "slices": {}
    },
    "modality": "bold",
    "run_id": 12,
    "session_id": "12",
    "subject_id": "001",
    "task_id": "HalfFovNoTask",
    "time": {
      "samples": {
        "AcquisitionNumber": [
          1,
          2,
          3,
          4,
          5,
          6,
          7,
          8,
          9,
          10,
          11,
          12,
          13,
          14,
          15,
          16,
          17,
          18,
          19,
          20,
          21,
          22,
          23,
          24,
          25,
          26,
          27,
          28,
          29,
          30,
          31,
          32,
          33,
          34,
          35,
          36,
          37,
          38,
          39,
          40,
          41,
          42,
          43,
          44,
          45,
          46,
          47,
          48,
          49,
          50,
          51,
          52,
          53,
          54,
          55,
          56,
          57,
          58,
          59,
          60,
          61,
          62,
          63,
          64,
          65,
          66,
          67,
          68,
          69,
          70,
          71,
          72,
          73,
          74,
          75,
          76,
          77,
          78,
          79,
          80,
          81,
          82,
          83,
          84,
          85,
          86,
          87,
          88,
          89,
          90,
          91,
          92,
          93,
          94,
          95,
          96,
          97,
          98,
          99,
          100,
          101,
          102,
          103,
          104,
          105,
          106,
          107,
          108,
          109,
          110,
          111,
          112,
          113,
          114,
          115,
          116,
          117,
          118,
          119,
          120,
          121,
          122,
          123,
          124,
          125,
          126,
          127,
          128,
          129,
          130,
          131,
          132,
          133,
          134,
          135,
          136,
          137,
          138,
          139,
          140,
          141,
          142,
          143,
          144,
          145,
          146,
          147,
          148,
          149,
          150,
          151,
          152,
          153,
          154,
          155,
          156,
          157,
          158,
          159,
          160,
          161,
          162,
          163,
          164
        ],
        "AcquisitionTime": [
          "173340.967500",
          "173344.982500",
          "173346.992500",
          "173349.000000",
          "173351.007500",
          "173353.015000",
          "173355.025000",
          "173357.032500",
          "173359.040000",
          "173401.047500",
          "173403.055000",
          "173405.065000",
          "173407.072500",
          "173409.080000",
          "173411.087500",
          "173413.095000",
          "173415.105000",
          "173417.112500",
          "173419.120000",
          "173421.127500",
          "173423.135000",
          "173425.145000",
          "173427.152500",
          "173429.160000",
          "173431.167500",
          "173433.177500",
          "173435.185000",
          "173437.192500",
          "173439.200000",
          "173441.207500",
          "173443.217500",
          "173445.225000",
          "173447.232500",
          "173449.240000",
          "173451.247500",
          "173453.257500",
          "173455.265000",
          "173457.272500",
          "173459.280000",
          "173501.290000",
          "173503.297500",
          "173505.305000",
          "173507.312500",
          "173509.320000",
          "173511.330000",
          "173513.337500",
          "173515.345000",
          "173517.352500",
          "173519.360000",
          "173521.370000",
          "173523.377500",
          "173525.385000",
          "173527.392500",
          "173529.402500",
          "173531.410000",
          "173533.417500",
          "173535.425000",
          "173537.432500",
          "173539.442500",
          "173541.450000",
          "173543.457500",
          "173545.465000",
          "173547.472500",
          "173549.482500",
          "173551.490000",
          "173553.497500",
          "173555.505000",
          "173557.512500",
          "173559.522500",
          "173601.530000",
          "173603.537500",
          "173605.545000",
          "173607.555000",
          "173609.562500",
          "173611.570000",
          "173613.577500",
          "173615.585000",
          "173617.595000",
          "173619.602500",
          "173621.610000",
          "173623.617500",
          "173625.625000",
          "173627.635000",
          "173629.642500",
          "173631.650000",
          "173633.657500",
          "173635.667500",
          "173637.675000",
          "173639.682500",
          "173641.690000",
          "173643.697500",
          "173645.707500",
          "173647.715000",
          "173649.722500",
          "173651.730000",
          "173653.737500",
          "173655.747500",
          "173657.755000",
          "173659.762500",
          "173701.770000",
          "173703.780000",
          "173705.787500",
          "173707.795000",
          "173709.802500",
          "173711.810000",
          "173713.820000",
          "173715.827500",
          "173717.835000",
          "173719.842500",
          "173721.850000",
          "173723.860000",
          "173725.867500",
          "173727.875000",
          "173729.882500",
          "173731.890000",
          "173733.900000",
          "173735.907500",
          "173737.915000",
          "173739.922500",
          "173741.932500",
          "173743.940000",
          "173745.947500",
          "173747.955000",
          "173749.962500",
          "173751.972500",
          "173753.980000",
          "173755.987500",
          "173757.995000",
          "173800.002500",
          "173802.012500",
          "173804.020000",
          "173806.027500",
          "173808.035000",
          "173810.045000",
          "173812.052500",
          "173814.060000",
          "173816.067500",
          "173818.075000",
          "173820.085000",
          "173822.092500",
          "173824.100000",
          "173826.107500",
          "173828.115000",
          "173830.125000",
          "173832.132500",
          "173834.140000",
          "173836.147500",
          "173838.157500",
          "173840.165000",
          "173842.172500",
          "173844.180000",
          "173846.187500",
          "173848.197500",
          "173850.205000",
          "173852.212500",
          "173854.220000",
          "173856.227500",
          "173858.237500",
          "173900.245000",
          "173902.252500",
          "173904.260000",
          "173906.267500",
          "173908.277500",
          "173910.285000"
        ],
        "ContentTime": [
          "173431.387000",
          "173431.402000",
          "173431.402000",
          "173431.402000",
          "173431.402000",
          "173431.418000",
          "173431.418000",
          "173431.418000",
          "173431.418000",
          "173431.418000",
          "173431.433000",
          "173431.433000",
          "173431.433000",
          "173431.433000",
          "173431.433000",
          "173431.433000",
          "173431.433000",
          "173431.449000",
          "173431.449000",
          "173431.449000",
          "173431.449000",
          "173431.449000",
          "173431.449000",
          "173431.465000",
          "173511.371000",
          "173511.371000",
          "173511.371000",
          "173511.371000",
          "173511.387000",
          "173511.387000",
          "173511.387000",
          "173511.387000",
          "173511.387000",
          "173511.387000",
          "173511.387000",
          "173511.402000",
          "173511.402000",
          "173511.402000",
          "173511.402000",
          "173511.402000",
          "173511.418000",
          "173511.418000",
          "173511.418000",
          "173511.418000",
          "173551.371000",
          "173551.371000",
          "173551.371000",
          "173551.371000",
          "173551.371000",
          "173551.387000",
          "173551.387000",
          "173551.387000",
          "173551.387000",
          "173551.387000",
          "173551.387000",
          "173551.402000",
          "173551.402000",
          "173551.402000",
          "173551.402000",
          "173551.402000",
          "173551.402000",
          "173551.418000",
          "173551.418000",
          "173551.418000",
          "173631.371000",
          "173631.371000",
          "173631.371000",
          "173631.371000",
          "173631.371000",
          "173631.387000",
          "173631.387000",
          "173631.387000",
          "173631.387000",
          "173631.387000",
          "173631.387000",
          "173631.402000",
          "173631.402000",
          "173631.402000",
          "173631.418000",
          "173631.418000",
          "173631.418000",
          "173631.418000",
          "173631.418000",
          "173631.418000",
          "173711.371000",
          "173711.371000",
          "173711.371000",
          "173711.371000",
          "173711.387000",
          "173711.387000",
          "173711.387000",
          "173711.387000",
          "173711.387000",
          "173711.387000",
          "173711.387000",
          "173711.402000",
          "173711.402000",
          "173711.402000",
          "173711.402000",
          "173711.418000",
          "173711.418000",
          "173711.418000",
          "173711.418000",
          "173711.418000",
          "173751.371000",
          "173751.371000",
          "173751.387000",
          "173751.387000",
          "173751.387000",
          "173751.387000",
          "173751.387000",
          "173751.387000",
          "173751.387000",
          "173751.402000",
          "173751.402000",
          "173751.402000",
          "173751.402000",
          "173751.402000",
          "173751.418000",
          "173751.418000",
          "173751.418000",
          "173751.418000",
          "173751.418000",
          "173751.418000",
          "173831.371000",
          "173831.371000",
          "173831.371000",
          "173831.371000",
          "173831.387000",
          "173831.387000",
          "173831.387000",
          "173831.387000",
          "173831.387000",
          "173831.402000",
          "173831.402000",
          "173831.402000",
          "173831.402000",
          "173831.402000",
          "173831.402000",
          "173831.402000",
          "173831.418000",
          "173831.418000",
          "173831.418000",
          "173831.418000",
          "173910.933000",
          "173910.933000",
          "173910.933000",
          "173910.933000",
          "173910.933000",
          "173910.933000",
          "173910.949000",
          "173910.949000",
          "173910.949000",
          "173910.949000",
          "173910.949000",
          "173910.949000",
          "173910.965000",
          "173910.965000",
          "173910.965000",
          "173910.965000",
          "173910.965000",
          "173910.965000",
          "173910.965000",
          "173910.980000"
        ],
        "InstanceCreationTime": [
          "173431.387000",
          "173431.402000",
          "173431.402000",
          "173431.402000",
          "173431.402000",
          "173431.418000",
          "173431.418000",
          "173431.418000",
          "173431.418000",
          "173431.418000",
          "173431.433000",
          "173431.433000",
          "173431.433000",
          "173431.433000",
          "173431.433000",
          "173431.433000",
          "173431.433000",
          "173431.449000",
          "173431.449000",
          "173431.449000",
          "173431.449000",
          "173431.449000",
          "173431.449000",
          "173431.465000",
          "173511.371000",
          "173511.371000",
          "173511.371000",
          "173511.371000",
          "173511.387000",
          "173511.387000",
          "173511.387000",
          "173511.387000",
          "173511.387000",
          "173511.387000",
          "173511.387000",
          "173511.402000",
          "173511.402000",
          "173511.402000",
          "173511.402000",
          "173511.402000",
          "173511.418000",
          "173511.418000",
          "173511.418000",
          "173511.418000",
          "173551.371000",
          "173551.371000",
          "173551.371000",
          "173551.371000",
          "173551.371000",
          "173551.387000",
          "173551.387000",
          "173551.387000",
          "173551.387000",
          "173551.387000",
          "173551.387000",
          "173551.402000",
          "173551.402000",
          "173551.402000",
          "173551.402000",
          "173551.402000",
          "173551.402000",
          "173551.418000",
          "173551.418000",
          "173551.418000",
          "173631.371000",
          "173631.371000",
          "173631.371000",
          "173631.371000",
          "173631.371000",
          "173631.387000",
          "173631.387000",
          "173631.387000",
          "173631.387000",
          "173631.387000",
          "173631.387000",
          "173631.402000",
          "173631.402000",
          "173631.402000",
          "173631.418000",
          "173631.418000",
          "173631.418000",
          "173631.418000",
          "173631.418000",
          "173631.418000",
          "173711.371000",
          "173711.371000",
          "173711.371000",
          "173711.371000",
          "173711.387000",
          "173711.387000",
          "173711.387000",
          "173711.387000",
          "173711.387000",
          "173711.387000",
          "173711.387000",
          "173711.402000",
          "173711.402000",
          "173711.402000",
          "173711.402000",
          "173711.418000",
          "173711.418000",
          "173711.418000",
          "173711.418000",
          "173711.418000",
          "173751.371000",
          "173751.371000",
          "173751.387000",
          "173751.387000",
          "173751.387000",
          "173751.387000",
          "173751.387000",
          "173751.387000",
          "173751.387000",
          "173751.402000",
          "173751.402000",
          "173751.402000",
          "173751.402000",
          "173751.402000",
          "173751.418000",
          "173751.418000",
          "173751.418000",
          "173751.418000",
          "173751.418000",
          "173751.418000",
          "173831.371000",
          "173831.371000",
          "173831.371000",
          "173831.371000",
          "173831.387000",
          "173831.387000",
          "173831.387000",
          "173831.387000",
          "173831.387000",
          "173831.402000",
          "173831.402000",
          "173831.402000",
          "173831.402000",
          "173831.402000",
          "173831.402000",
          "173831.402000",
          "173831.418000",
          "173831.418000",
          "173831.418000",
          "173831.418000",
          "173910.933000",
          "173910.933000",
          "173910.933000",
          "173910.933000",
          "173910.933000",
          "173910.933000",
          "173910.949000",
          "173910.949000",
          "173910.949000",
          "173910.949000",
          "173910.949000",
          "173910.949000",
          "173910.965000",
          "173910.965000",
          "173910.965000",
          "173910.965000",
          "173910.965000",
          "173910.965000",
          "173910.965000",
          "173910.980000"
        ],
        "InstanceNumber": [
          1,
          2,
          3,
          4,
          5,
          6,
          7,
          8,
          9,
          10,
          11,
          12,
          13,
          14,
          15,
          16,
          17,
          18,
          19,
          20,
          21,
          22,
          23,
          24,
          25,
          26,
          27,
          28,
          29,
          30,
          31,
          32,
          33,
          34,
          35,
          36,
          37,
          38,
          39,
          40,
          41,
          42,
          43,
          44,
          45,
          46,
          47,
          48,
          49,
          50,
          51,
          52,
          53,
          54,
          55,
          56,
          57,
          58,
          59,
          60,
          61,
          62,
          63,
          64,
          65,
          66,
          67,
          68,
          69,
          70,
          71,
          72,
          73,
          74,
          75,
          76,
          77,
          78,
          79,
          80,
          81,
          82,
          83,
          84,
          85,
          86,
          87,
          88,
          89,
          90,
          91,
          92,
          93,
          94,
          95,
          96,
          97,
          98,
          99,
          100,
          101,
          102,
          103,
          104,
          105,
          106,
          107,
          108,
          109,
          110,
          111,
          112,
          113,
          114,
          115,
          116,
          117,
          118,
          119,
          120,
          121,
          122,
          123,
          124,
          125,
          126,
          127,
          128,
          129,
          130,
          131,
          132,
          133,
          134,
          135,
          136,
          137,
          138,
          139,
          140,
          141,
          142,
          143,
          144,
          145,
          146,
          147,
          148,
          149,
          150,
          151,
          152,
          153,
          154,
          155,
          156,
          157,
          158,
          159,
          160,
          161,
          162,
          163,
          164
        ],
        "WindowCenter": [
          1235.0,
          1231.0,
          1231.0,
          1230.0,
          1230.0,
          1231.0,
          1231.0,
          1230.0,
          1229.0,
          1230.0,
          1232.0,
          1231.0,
          1230.0,
          1229.0,
          1229.0,
          1229.0,
          1230.0,
          1230.0,
          1233.0,
          1234.0,
          1232.0,
          1229.0,
          1229.0,
          1230.0,
          1230.0,
          1229.0,
          1228.0,
          1229.0,
          1230.0,
          1231.0,
          1232.0,
          1232.0,
          1230.0,
          1229.0,
          1227.0,
          1226.0,
          1227.0,
          1227.0,
          1227.0,
          1228.0,
          1228.0,
          1228.0,
          1227.0,
          1228.0,
          1227.0,
          1226.0,
          1226.0,
          1228.0,
          1228.0,
          1227.0,
          1227.0,
          1227.0,
          1228.0,
          1227.0,
          1226.0,
          1226.0,
          1226.0,
          1229.0,
          1230.0,
          1232.0,
          1233.0,
          1233.0,
          1233.0,
          1235.0,
          1236.0,
          1233.0,
          1228.0,
          1226.0,
          1224.0,
          1223.0,
          1222.0,
          1223.0,
          1222.0,
          1223.0,
          1224.0,
          1226.0,
          1226.0,
          1224.0,
          1226.0,
          1227.0,
          1229.0,
          1230.0,
          1229.0,
          1229.0,
          1230.0,
          1230.0,
          1229.0,
          1230.0,
          1232.0,
          1234.0,
          1231.0,
          1229.0,
          1228.0,
          1227.0,
          1227.0,
          1226.0,
          1226.0,
          1225.0,
          1223.0,
          1222.0,
          1223.0,
          1225.0,
          1225.0,
          1225.0,
          1226.0,
          1226.0,
          1228.0,
          1229.0,
          1230.0,
          1231.0,
          1230.0,
          1228.0,
          1229.0,
          1229.0,
          1230.0,
          1230.0,
          1228.0,
          1227.0,
          1228.0,
          1228.0,
          1229.0,
          1229.0,
          1231.0,
          1230.0,
          1228.0,
          1228.0,
          1230.0,
          1231.0,
          1232.0,
          1230.0,
          1228.0,
          1227.0,
          1228.0,
          1229.0,
          1228.0,
          1228.0,
          1227.0,
          1228.0,
          1228.0,
          1227.0,
          1227.0,
          1227.0,
          1229.0,
          1228.0,
          1227.0,
          1227.0,
          1227.0,
          1227.0,
          1228.0,
          1228.0,
          1227.0,
          1226.0,
          1226.0,
          1229.0,
          1229.0,
          1228.0,
          1229.0,
          1231.0,
          1231.0,
          1230.0,
          1229.0,
          1227.0,
          1226.0,
          1226.0
        ],
        "WindowWidth": [
          2892.0,
          2882.0,
          2884.0,
          2880.0,
          2880.0,
          2881.0,
          2882.0,
          2879.0,
          2880.0,
          2882.0,
          2886.0,
          2883.0,
          2880.0,
          2877.0,
          2876.0,
          2878.0,
          2881.0,
          2882.0,
          2886.0,
          2889.0,
          2881.0,
          2877.0,
          2878.0,
          2884.0,
          2881.0,
          2875.0,
          2874.0,
          2877.0,
          2884.0,
          2886.0,
          2885.0,
          2882.0,
          2880.0,
          2879.0,
          2875.0,
          2874.0,
          2875.0,
          2876.0,
          2876.0,
          2876.0,
          2874.0,
          2876.0,
          2875.0,
          2874.0,
          2872.0,
          2872.0,
          2874.0,
          2875.0,
          2876.0,
          2872.0,
          2873.0,
          2872.0,
          2875.0,
          2874.0,
          2873.0,
          2871.0,
          2871.0,
          2876.0,
          2881.0,
          2889.0,
          2890.0,
          2891.0,
          2891.0,
          2899.0,
          2895.0,
          2885.0,
          2872.0,
          2871.0,
          2867.0,
          2864.0,
          2862.0,
          2864.0,
          2863.0,
          2864.0,
          2868.0,
          2871.0,
          2871.0,
          2866.0,
          2871.0,
          2874.0,
          2882.0,
          2882.0,
