{
  "aor": 0.0011789634146341463,
  "aqi": 0.004750005304878049,
  "bids_meta": {
    "AcquisitionMatrixPE": 96,
    "AcquisitionNumber": 1,
    "AcquisitionTime": "13:40:42.987500",
    "BandwidthPerPixelPhaseEncode": 52.083,
    "BaseResolution": 96,
    "ConversionSoftware": "dcm2niix",
    "ConversionSoftwareVersion": "v1.0.20180622 GCC6.3.0",
    "DerivedVendorReportedEchoSpacing": 0.000600004,
    "DeviceSerialNumber": "18926",
    "DwellTime": 2.6e-06,
    "EchoTime": 0.025,
    "EffectiveEchoSpacing": 0.000200001,
    "FlipAngle": 50,
    "ImageOrientationPatientDICOM": [
      0.999992,
      0.00067012,
      0.00404905,
      2.11009e-10,
      0.98658,
      -0.16328
    ],
    "ImageType": [
      "ORIGINAL",
      "PRIMARY",
      "M",
      "ND",
      "ECHO",
      "00",
      "MOSAIC"
    ],
    "InPlanePhaseEncodingDirectionDICOM": "ROW",
    "InstitutionName": "NIMH",
    "InstitutionalDepartmentName": "Department",
    "MRAcquisitionType": "2D",
    "MagneticFieldStrength": 6.98,
    "Manufacturer": "Siemens",
    "ManufacturersModelName": "Investigational_Device_7T",
    "Modality": "MR",
    "ParallelReductionFactorInPlane": 3,
    "PartialFourier": 1,
    "PatientPosition": "HFS",
    "PercentPhaseFOV": 100,
    "PhaseEncodingDirection": "i",
    "PhaseEncodingSteps": 94,
    "PhaseResolution": 1,
    "PixelBandwidth": 2003,
    "ProcedureStepDescription": "UserProtocols_FMRIF_Templates",
    "ProtocolName": "NIH_EPI_2.0iso_TR2_Run07",
    "PulseSequenceDetails": "%CustomerSeq%_inati_nih_epi",
    "ReceiveCoilName": "32Ch_Head_7T",
    "ReconMatrixPE": 96,
    "RepetitionTime": 2,
    "SAR": 0.0734712,
    "ScanningSequence": "EP",
    "SequenceName": "epfid2d1_96",
    "SequenceVariant": "SK",
    "SeriesDescription": "NIH_EPI_2.0iso_TR2_Run07",
    "SeriesNumber": 11,
    "ShimSetting": [
      -115,
      266,
      1196,
      1579,
      -89,
      563,
      139,
      -272
    ],
    "SliceThickness": 2,
    "SliceTiming": [
      1.0025,
      0,
      1.04,
      0.0375,
      1.0775,
      0.075,
      1.115,
      0.1125,
      1.1525,
      0.1475,
      1.19,
      0.185,
      1.2275,
      0.2225,
      1.265,
      0.26,
      1.3,
      0.2975,
      1.3375,
      0.335,
      1.375,
      0.3725,
      1.4125,
      0.4075,
      1.45,
      0.445,
      1.4875,
      0.4825,
      1.525,
      0.52,
      1.5625,
      0.5575,
      1.5975,
      0.595,
      1.635,
      0.6325,
      1.6725,
      0.67,
      1.71,
      0.705,
      1.7475,
      0.7425,
      1.785,
      0.78,
      1.8225,
      0.8175,
      1.8575,
      0.855,
      1.895,
      0.8925,
      1.9325,
      0.93,
      1.97,
      0.9675
    ],
    "SoftwareVersions": "syngo_MR_B17",
    "SpacingBetweenSlices": 2,
    "StationName": "FMRIFD7T",
    "TaskName": "FullFovNoAttentionTask",
    "TotalReadoutTime": 0.0190001,
    "TxRefAmp": 270,
    "dataset": "ds001555",
    "dcmmeta_affine": [
      [
        -1.9999831914901733,
        4.2201880878778297e-10,
        0.008208253420889378,
        95.76705169677734
      ],
      [
        -0.0013402394251897931,
        1.973159670829773,
        -0.32655632495880127,
        -59.74467468261719
      ],
      [
        0.008098097518086433,
        0.32655906677246094,
        1.9731429815292358,
        -55.7390022277832
      ],
      [
        0.0,
        0.0,
        0.0,
        1.0
      ]
    ],
    "dcmmeta_reorient_transform": [
      [
        0.0,
        -1.0,
        0.0,
        95.0
      ],
      [
        1.0,
        0.0,
        0.0,
        0.0
      ],
      [
        0.0,
        0.0,
        1.0,
        0.0
      ],
      [
        0.0,
        0.0,
        0.0,
        1.0
      ]
    ],
    "dcmmeta_shape": [
      96,
      96,
      54,
      164
    ],
    "dcmmeta_slice_dim": 2,
    "dcmmeta_version": 0.6,
    "global": {
      "const": {
        "AcquisitionMatrix": [
          0,
          96,
          96,
          0
        ],
        "AngioFlag": "N",
        "BitsAllocated": 16,
        "BitsStored": 12,
        "Columns": 768,
        "EchoNumbers": 1,
        "EchoTime": 25.0,
        "EchoTrainLength": 1,
        "FlipAngle": 50.0,
        "HighBit": 11,
        "ImageOrientationPatient": [
          0.99999157803662,
          0.00067011969073,
          0.00404904870684,
          2.110094e-10,
          0.98657984636313,
          -0.1632795356133
        ],
        "ImagePositionPatient": [
          -767.761392775,
          -791.1374745092,
          82.286995969312
        ],
        "ImageType": [
          "ORIGINAL",
          "PRIMARY",
          "M",
          "ND",
          "ECHO_00",
          "MOSAIC"
        ],
        "ImagedNucleus": "1H",
        "ImagingFrequency": 297.205074,
        "InPlanePhaseEncodingDirection": "ROW",
        "LargestImagePixelValue": 4095,
        "MRAcquisitionType": "2D",
        "MagneticFieldStrength": 6.98,
        "Manufacturer": "SIEMENS",
        "ManufacturerModelName": "Investigational_Device_7T",
        "Modality": "MR",
        "NumberOfAverages": 1.0,
        "NumberOfPhaseEncodingSteps": 94,
        "PercentPhaseFieldOfView": 100.0,
        "PercentSampling": 100.0,
        "PerformedProcedureStepStartTime": "125235.937000",
        "PhotometricInterpretation": "MONOCHROME2",
        "PixelBandwidth": 2003.0,
        "PixelRepresentation": 0,
        "PixelSpacing": [
          2.0,
          2.0
        ],
        "PositionReferenceIndicator": "",
        "ProtocolName": "NIH_EPI_2.0iso_TR2_Run07",
        "RepetitionTime": 2000.0,
        "Rows": 768,
        "SAR": 0.07347115807071,
        "SamplesPerPixel": 1,
        "ScanningSequence": "EP",
        "SequenceName": "epfid2d1_96",
        "SequenceVariant": "SK",
        "SeriesDescription": "NIH_EPI_2.0iso_TR2_Run07",
        "SeriesNumber": 11,
        "SliceLocation": -44.842473382871,
        "SliceThickness": 2.0,
        "SmallestImagePixelValue": 0,
        "SoftwareVersions": "syngo MR B17",
        "SpacingBetweenSlices": 1.9999999415377,
        "TransmitCoilName": "32Ch_Head_7T",
        "VariableFlipAngleFlag": "N",
        "WindowCenterWidthExplanation": "Algo1",
        "dBdt": 0.0
      },
      "slices": {}
    },
    "modality": "bold",
    "run_id": 8,
    "session_id": "06",
    "subject_id": "002",
    "task_id": "FullFovNoAttentionTask",
    "time": {
      "samples": {
        "AcquisitionNumber": [
          1,
          2,
          3,
          4,
          5,
          6,
          7,
          8,
          9,
          10,
          11,
          12,
          13,
          14,
          15,
          16,
          17,
          18,
          19,
          20,
          21,
          22,
          23,
          24,
          25,
          26,
          27,
          28,
          29,
          30,
          31,
          32,
          33,
          34,
          35,
          36,
          37,
          38,
          39,
          40,
          41,
          42,
          43,
          44,
          45,
          46,
          47,
          48,
          49,
          50,
          51,
          52,
          53,
          54,
          55,
          56,
          57,
          58,
          59,
          60,
          61,
          62,
          63,
          64,
          65,
          66,
          67,
          68,
          69,
          70,
          71,
          72,
          73,
          74,
          75,
          76,
          77,
          78,
          79,
          80,
          81,
          82,
          83,
          84,
          85,
          86,
          87,
          88,
          89,
          90,
          91,
          92,
          93,
          94,
          95,
          96,
          97,
          98,
          99,
          100,
          101,
          102,
          103,
          104,
          105,
          106,
          107,
          108,
          109,
          110,
          111,
          112,
          113,
          114,
          115,
          116,
          117,
          118,
          119,
          120,
          121,
          122,
          123,
          124,
          125,
          126,
          127,
          128,
          129,
          130,
          131,
          132,
          133,
          134,
          135,
          136,
          137,
          138,
          139,
          140,
          141,
          142,
          143,
          144,
          145,
          146,
          147,
          148,
          149,
          150,
          151,
          152,
          153,
          154,
          155,
          156,
          157,
          158,
          159,
          160,
          161,
          162,
          163,
          164
        ],
        "AcquisitionTime": [
          "134042.987500",
          "134047.005000",
          "134049.012500",
          "134051.020000",
          "134053.027500",
          "134055.037500",
          "134057.045000",
          "134059.052500",
          "134101.060000",
          "134103.070000",
          "134105.077500",
          "134107.085000",
          "134109.092500",
          "134111.100000",
          "134113.110000",
          "134115.117500",
          "134117.125000",
          "134119.132500",
          "134121.140000",
          "134123.150000",
          "134125.157500",
          "134127.165000",
          "134129.172500",
          "134131.182500",
          "134133.190000",
          "134135.197500",
          "134137.205000",
          "134139.212500",
          "134141.222500",
          "134143.230000",
          "134145.237500",
          "134147.245000",
          "134149.252500",
          "134151.262500",
          "134153.270000",
          "134155.277500",
          "134157.285000",
          "134159.295000",
          "134201.302500",
          "134203.310000",
          "134205.317500",
          "134207.325000",
          "134209.335000",
          "134211.342500",
          "134213.350000",
          "134215.357500",
          "134217.365000",
          "134219.375000",
          "134221.382500",
          "134223.390000",
          "134225.397500",
          "134227.405000",
          "134229.415000",
          "134231.422500",
          "134233.430000",
          "134235.437500",
          "134237.447500",
          "134239.455000",
          "134241.462500",
          "134243.470000",
          "134245.477500",
          "134247.487500",
          "134249.495000",
          "134251.502500",
          "134253.510000",
          "134255.517500",
          "134257.527500",
          "134259.535000",
          "134301.542500",
          "134303.550000",
          "134305.560000",
          "134307.567500",
          "134309.575000",
          "134311.582500",
          "134313.590000",
          "134315.600000",
          "134317.607500",
          "134319.615000",
          "134321.622500",
          "134323.630000",
          "134325.640000",
          "134327.647500",
          "134329.655000",
          "134331.662500",
          "134333.672500",
          "134335.680000",
          "134337.687500",
          "134339.695000",
          "134341.702500",
          "134343.712500",
          "134345.720000",
          "134347.727500",
          "134349.735000",
          "134351.742500",
          "134353.752500",
          "134355.760000",
          "134357.767500",
          "134359.775000",
          "134401.785000",
          "134403.792500",
          "134405.800000",
          "134407.807500",
          "134409.815000",
          "134411.825000",
          "134413.832500",
          "134415.840000",
          "134417.847500",
          "134419.855000",
          "134421.865000",
          "134423.872500",
          "134425.880000",
          "134427.887500",
          "134429.895000",
          "134431.905000",
          "134433.912500",
          "134435.920000",
          "134437.927500",
          "134439.937500",
          "134441.945000",
          "134443.952500",
          "134445.960000",
          "134447.967500",
          "134449.977500",
          "134451.985000",
          "134453.992500",
          "134456.000000",
          "134458.007500",
          "134500.017500",
          "134502.025000",
          "134504.032500",
          "134506.040000",
          "134508.050000",
          "134510.057500",
          "134512.065000",
          "134514.072500",
          "134516.080000",
          "134518.090000",
          "134520.097500",
          "134522.105000",
          "134524.112500",
          "134526.120000",
          "134528.130000",
          "134530.137500",
          "134532.145000",
          "134534.152500",
          "134536.162500",
          "134538.170000",
          "134540.177500",
          "134542.185000",
          "134544.192500",
          "134546.202500",
          "134548.210000",
          "134550.217500",
          "134552.225000",
          "134554.232500",
          "134556.242500",
          "134558.250000",
          "134600.257500",
          "134602.265000",
          "134604.272500",
          "134606.282500",
          "134608.290000",
          "134610.297500",
          "134612.305000"
        ],
        "ContentTime": [
          "134138.515000",
          "134138.531000",
          "134138.531000",
          "134138.531000",
          "134138.546000",
          "134138.546000",
          "134138.546000",
          "134138.562000",
          "134138.562000",
          "134138.562000",
          "134138.562000",
          "134138.578000",
          "134138.578000",
          "134138.578000",
          "134138.578000",
          "134138.578000",
          "134138.578000",
          "134138.578000",
          "134138.593000",
          "134138.593000",
          "134138.593000",
          "134138.593000",
          "134138.593000",
          "134138.593000",
          "134138.593000",
          "134138.609000",
          "134138.609000",
          "134218.515000",
          "134218.515000",
          "134218.515000",
          "134218.515000",
          "134218.515000",
          "134218.531000",
          "134218.531000",
          "134218.531000",
          "134218.531000",
          "134218.531000",
          "134218.531000",
          "134218.531000",
          "134218.546000",
          "134218.546000",
          "134218.546000",
          "134218.546000",
          "134218.546000",
          "134218.546000",
          "134218.562000",
          "134218.562000",
          "134258.515000",
          "134258.515000",
          "134258.515000",
          "134258.531000",
          "134258.531000",
          "134258.562000",
          "134258.562000",
          "134258.562000",
          "134258.562000",
          "134258.578000",
          "134258.593000",
          "134258.593000",
          "134258.609000",
          "134258.609000",
          "134258.609000",
          "134258.609000",
          "134258.609000",
          "134258.609000",
          "134258.625000",
          "134258.625000",
          "134338.515000",
          "134338.515000",
          "134338.515000",
          "134338.515000",
          "134338.515000",
          "134338.531000",
          "134338.531000",
          "134338.531000",
          "134338.531000",
          "134338.531000",
          "134338.531000",
          "134338.531000",
          "134338.546000",
          "134338.546000",
          "134338.546000",
          "134338.546000",
          "134338.546000",
          "134338.562000",
          "134338.562000",
          "134338.562000",
          "134418.515000",
          "134418.515000",
          "134418.515000",
          "134418.515000",
          "134418.515000",
          "134418.531000",
          "134418.531000",
          "134418.531000",
          "134418.531000",
          "134418.531000",
          "134418.531000",
          "134418.531000",
          "134418.546000",
          "134418.546000",
          "134418.546000",
          "134418.546000",
          "134418.546000",
          "134418.546000",
          "134418.562000",
          "134418.562000",
          "134458.515000",
          "134458.515000",
          "134458.515000",
          "134458.515000",
          "134458.531000",
          "134458.531000",
          "134458.531000",
          "134458.531000",
          "134458.531000",
          "134458.546000",
          "134458.546000",
          "134458.546000",
          "134458.546000",
          "134458.546000",
          "134458.546000",
          "134458.562000",
          "134458.562000",
          "134458.562000",
          "134458.562000",
          "134458.562000",
          "134538.515000",
          "134538.515000",
          "134538.515000",
          "134538.515000",
          "134538.515000",
          "134538.531000",
          "134538.531000",
          "134538.531000",
          "134538.531000",
          "134538.531000",
          "134538.531000",
          "134538.531000",
          "134538.546000",
          "134538.546000",
          "134538.546000",
          "134538.546000",
          "134538.546000",
          "134538.562000",
          "134538.562000",
          "134538.562000",
          "134611.968000",
          "134611.984000",
          "134611.984000",
          "134611.984000",
          "134611.984000",
          "134611.984000",
          "134611.984000",
          "134612.000000",
          "134612.000000",
          "134612.000000",
          "134612.000000",
          "134612.000000",
          "134612.015000",
          "134612.015000",
          "134612.015000",
          "134612.015000",
          "134612.015000"
        ],
        "InstanceCreationTime": [
          "134138.515000",
          "134138.531000",
          "134138.531000",
          "134138.531000",
          "134138.546000",
          "134138.546000",
          "134138.546000",
          "134138.562000",
          "134138.562000",
          "134138.562000",
          "134138.562000",
          "134138.578000",
          "134138.578000",
          "134138.578000",
          "134138.578000",
          "134138.578000",
          "134138.578000",
          "134138.578000",
          "134138.593000",
          "134138.593000",
          "134138.593000",
          "134138.593000",
          "134138.593000",
          "134138.593000",
          "134138.593000",
          "134138.609000",
          "134138.609000",
          "134218.515000",
          "134218.515000",
          "134218.515000",
          "134218.515000",
          "134218.515000",
          "134218.531000",
          "134218.531000",
          "134218.531000",
          "134218.531000",
          "134218.531000",
          "134218.531000",
          "134218.531000",
          "134218.546000",
          "134218.546000",
          "134218.546000",
          "134218.546000",
          "134218.546000",
          "134218.546000",
          "134218.562000",
          "134218.562000",
          "134258.515000",
          "134258.515000",
          "134258.515000",
          "134258.531000",
          "134258.531000",
          "134258.562000",
          "134258.562000",
          "134258.562000",
          "134258.562000",
          "134258.578000",
          "134258.593000",
          "134258.593000",
          "134258.609000",
          "134258.609000",
          "134258.609000",
          "134258.609000",
          "134258.609000",
          "134258.609000",
          "134258.625000",
          "134258.625000",
          "134338.515000",
          "134338.515000",
          "134338.515000",
          "134338.515000",
          "134338.515000",
          "134338.531000",
          "134338.531000",
          "134338.531000",
          "134338.531000",
          "134338.531000",
          "134338.531000",
          "134338.531000",
          "134338.546000",
          "134338.546000",
          "134338.546000",
          "134338.546000",
          "134338.546000",
          "134338.562000",
          "134338.562000",
          "134338.562000",
          "134418.515000",
          "134418.515000",
          "134418.515000",
          "134418.515000",
          "134418.515000",
          "134418.531000",
          "134418.531000",
          "134418.531000",
          "134418.531000",
          "134418.531000",
          "134418.531000",
          "134418.531000",
          "134418.546000",
          "134418.546000",
          "134418.546000",
          "134418.546000",
          "134418.546000",
          "134418.546000",
          "134418.562000",
          "134418.562000",
          "134458.515000",
          "134458.515000",
          "134458.515000",
          "134458.515000",
          "134458.531000",
          "134458.531000",
          "134458.531000",
          "134458.531000",
          "134458.531000",
          "134458.546000",
          "134458.546000",
          "134458.546000",
          "134458.546000",
          "134458.546000",
          "134458.546000",
          "134458.562000",
          "134458.562000",
          "134458.562000",
          "134458.562000",
          "134458.562000",
          "134538.515000",
          "134538.515000",
          "134538.515000",
          "134538.515000",
          "134538.515000",
          "134538.531000",
          "134538.531000",
          "134538.531000",
          "134538.531000",
          "134538.531000",
          "134538.531000",
          "134538.531000",
          "134538.546000",
          "134538.546000",
          "134538.546000",
          "134538.546000",
          "134538.546000",
          "134538.562000",
          "134538.562000",
          "134538.562000",
          "134611.968000",
          "134611.984000",
          "134611.984000",
          "134611.984000",
          "134611.984000",
          "134611.984000",
          "134611.984000",
          "134612.000000",
          "134612.000000",
          "134612.000000",
          "134612.000000",
          "134612.000000",
          "134612.015000",
          "134612.015000",
          "134612.015000",
          "134612.015000",
          "134612.015000"
        ],
        "InstanceNumber": [
          1,
          2,
          3,
          4,
          5,
          6,
          7,
          8,
          9,
          10,
          11,
          12,
          13,
          14,
          15,
          16,
          17,
          18,
          19,
          20,
          21,
          22,
          23,
          24,
          25,
          26,
          27,
          28,
          29,
          30,
          31,
          32,
          33,
          34,
          35,
          36,
          37,
          38,
          39,
          40,
          41,
          42,
          43,
          44,
          45,
          46,
          47,
          48,
          49,
          50,
          51,
          52,
          53,
          54,
          55,
          56,
          57,
          58,
          59,
          60,
          61,
          62,
          63,
          64,
          65,
          66,
          67,
          68,
          69,
          70,
          71,
          72,
          73,
          74,
          75,
          76,
          77,
          78,
          79,
          80,
          81,
          82,
          83,
          84,
          85,
          86,
          87,
          88,
          89,
          90,
          91,
          92,
          93,
          94,
          95,
          96,
          97,
          98,
          99,
          100,
          101,
          102,
          103,
          104,
          105,
          106,
          107,
          108,
          109,
          110,
          111,
          112,
          113,
          114,
          115,
          116,
          117,
          118,
          119,
          120,
          121,
          122,
          123,
          124,
          125,
          126,
          127,
          128,
          129,
          130,
          131,
          132,
          133,
          134,
          135,
          136,
          137,
          138,
          139,
          140,
          141,
          142,
          143,
          144,
          145,
          146,
          147,
          148,
          149,
          150,
          151,
          152,
          153,
          154,
          155,
          156,
          157,
          158,
          159,
          160,
          161,
          162,
          163,
          164
        ],
        "WindowCenter": [
          1029.0,
          1030.0,
          1031.0,
          1031.0,
          1030.0,
          1031.0,
          1032.0,
          1029.0,
          1027.0,
          1029.0,
          1029.0,
          1027.0,
          1030.0,
          1029.0,
          1029.0,
          1028.0,
          1026.0,
          1031.0,
          1029.0,
          1026.0,
          1028.0,
          1026.0,
          1026.0,
          1029.0,
          1027.0,
          1027.0,
          1028.0,
          1027.0,
          1028.0,
          1026.0,
          1027.0,
          1029.0,
          1028.0,
          1028.0,
          1028.0,
          1027.0,
          1029.0,
          1028.0,
          1029.0,
          1030.0,
          1029.0,
          1030.0,
          1031.0,
          1028.0,
          1027.0,
          1029.0,
          1028.0,
          1029.0,
          1030.0,
          1028.0,
          1027.0,
          1029.0,
          1027.0,
          1027.0,
          1028.0,
          1026.0,
          1026.0,
          1028.0,
          1027.0,
          1028.0,
          1028.0,
          1030.0,
          1029.0,
          1028.0,
          1028.0,
          1028.0,
          1030.0,
          1029.0,
          1029.0,
          1027.0,
          1028.0,
          1030.0,
          1028.0,
          1028.0,
          1026.0,
          1026.0,
          1027.0,
          1028.0,
          1028.0,
          1027.0,
          1028.0,
          1027.0,
          1027.0,
          1027.0,
          1027.0,
          1027.0,
          1028.0,
          1027.0,
          1027.0,
          1029.0,
          1029.0,
          1027.0,
          1027.0,
          1029.0,
          1029.0,
          1026.0,
          1028.0,
          1029.0,
          1029.0,
          1028.0,
          1027.0,
          1029.0,
          1029.0,
          1029.0,
          1028.0,
          1028.0,
          1029.0,
          1031.0,
          1030.0,
          1029.0,
          1027.0,
          1027.0,
          1028.0,
          1028.0,
          1027.0,
          1027.0,
          1028.0,
          1028.0,
          1028.0,
          1028.0,
          1027.0,
          1029.0,
          1027.0,
          1028.0,
          1028.0,
          1032.0,
          1028.0,
          1027.0,
          1028.0,
          1029.0,
          1029.0,
          1027.0,
          1027.0,
          1028.0,
          1029.0,
          1029.0,
          1029.0,
          1028.0,
          1030.0,
          1029.0,
          1029.0,
          1029.0,
          1030.0,
          1030.0,
          1028.0,
          1029.0,
          1029.0,
          1029.0,
          1029.0,
          1029.0,
          1029.0,
          1028.0,
          1028.0,
          1029.0,
          1027.0,
          1029.0,
          1028.0,
          1030.0,
          1030.0,
          1028.0,
          1028.0,
          1029.0,
          1032.0,
          1031.0
        ],
        "WindowWidth": [
          2709.0,
          2718.0,
          2725.0,
          2715.0,
          2721.0,
          2726.0,
          2725.0,
          2715.0,
          2708.0,
          2720.0,
          2716.0,
          2706.0,
          2719.0,
          2717.0,
          2711.0,
          2704.0,
          2702.0,
          2722.0,
          2712.0,
          2702.0,
          2709.0,
          2701.0,
          2703.0,
          2714.0,
          2708.0,
          2705.0,
          2712.0,
          2703.0,
          2711.0,
          2702.0,
          2711.0,
          2715.0,
          2704.0,
          2711.0,
          2707.0,
          2713.0,
          2721.0,
          2711.0,
          2715.0,
          2710.0,
          2715.0,
          2720.0,
          2719.0,
          2711.0,
          2705.0,
          2716.0,
          2709.0,
          2709.0,
          2718.0,
          2705.0,
          2707.0,
          2716.0,
          2705.0,
          2703.0,
          2707.0,
          2698.0,
          2708.0,
          2709.0,
          2704.0,
          2711.0,
          2708.0,
          2717.0,
          2709.0,
          2709.0,
          2712.0,
          2709.0,
          2721.0,
          2713.0,
          2713.0,
          2701.0,
          2714.0,
          2716.0,
          2707.0,
          2706.0,
          2698.0,
          2703.0,
          2702.0,
          2710.0,
          2705.0,
          2704.0,
          2714.0,
          2706.0,
          2708.0,
          2701.0,
          2708.0,
          2708.0,
          2710.0,
          2704.0,
          2708.0,
          2714.0,
          2710.0,
          2698.0,
          2710.0,
          2712.0,
          2710.0,
          2698.0,
          2711.0,
          2716.0,
          2712.0,
          2703.0,
          2708.0,
          2712.0,
          2719.0,
          2714.0,
          2709.0,
          2706.0,
          2717.0,
          2717.0,
          2715.0,
          2707.0,
          2702.0,
          2704.0,
          2708.0,
          2704.0,
          2703.0,
          2705.0,
          2705.0,
          2708.0,
          2701.0,
          2701.0,
          2702.0,
          2708.0,
          2700.0,
          2704.0,
          2713.0,
          2716.0,
          2707.0,
          2699.0,
          2712.0,
          2711.0,
          2703.0,
