{
  "aor": 0.003924085365853659,
  "aqi": 0.01020331012195122,
  "bids_meta": {
    "AcquisitionMatrixPE": 96,
    "AcquisitionNumber": 1,
    "AcquisitionTime": "13:02:38.227500",
    "BandwidthPerPixelPhaseEncode": 52.083,
    "BaseResolution": 96,
    "ConversionSoftware": "dcm2niix",
    "ConversionSoftwareVersion": "v1.0.20180622 GCC6.3.0",
    "DerivedVendorReportedEchoSpacing": 0.000600004,
    "DeviceSerialNumber": "18926",
    "DwellTime": 2.6e-06,
    "EchoTime": 0.025,
    "EffectiveEchoSpacing": 0.000200001,
    "FlipAngle": 50,
    "ImageOrientationPatientDICOM": [
      0.999992,
      0.00067012,
      0.00404905,
      2.11009e-10,
      0.98658,
      -0.16328
    ],
    "ImageType": [
      "ORIGINAL",
      "PRIMARY",
      "M",
      "ND",
      "ECHO",
      "00",
      "MOSAIC"
    ],
    "InPlanePhaseEncodingDirectionDICOM": "ROW",
    "InstitutionName": "NIMH",
    "InstitutionalDepartmentName": "Department",
    "MRAcquisitionType": "2D",
    "MagneticFieldStrength": 6.98,
    "Manufacturer": "Siemens",
    "ManufacturersModelName": "Investigational_Device_7T",
    "Modality": "MR",
    "ParallelReductionFactorInPlane": 3,
    "PartialFourier": 1,
    "PatientPosition": "HFS",
    "PercentPhaseFOV": 100,
    "PhaseEncodingDirection": "i",
    "PhaseEncodingSteps": 94,
    "PhaseResolution": 1,
    "PixelBandwidth": 2003,
    "ProcedureStepDescription": "UserProtocols_FMRIF_Templates",
    "ProtocolName": "NIH_EPI_2.0iso_TR2_Run01",
    "PulseSequenceDetails": "%CustomerSeq%_inati_nih_epi",
    "ReceiveCoilName": "32Ch_Head_7T",
    "ReconMatrixPE": 96,
    "RepetitionTime": 2,
    "SAR": 0.0734712,
    "ScanningSequence": "EP",
    "SequenceName": "epfid2d1_96",
    "SequenceVariant": "SK",
    "SeriesDescription": "NIH_EPI_2.0iso_TR2_Run01",
    "SeriesNumber": 5,
    "ShimSetting": [
      -115,
      266,
      1196,
      1579,
      -89,
      563,
      139,
      -272
    ],
    "SliceThickness": 2,
    "SliceTiming": [
      1.0025,
      0,
      1.04,
      0.0375,
      1.0775,
      0.0725,
      1.115,
      0.11,
      1.1525,
      0.1475,
      1.19,
      0.185,
      1.225,
      0.2225,
      1.2625,
      0.26,
      1.3,
      0.2975,
      1.3375,
      0.335,
      1.375,
      0.37,
      1.4125,
      0.4075,
      1.45,
      0.445,
      1.4875,
      0.4825,
      1.5225,
      0.52,
      1.56,
      0.5575,
      1.5975,
      0.595,
      1.635,
      0.6325,
      1.6725,
      0.6675,
      1.71,
      0.705,
      1.7475,
      0.7425,
      1.785,
      0.78,
      1.82,
      0.8175,
      1.8575,
      0.855,
      1.895,
      0.8925,
      1.9325,
      0.93,
      1.97,
      0.965
    ],
    "SoftwareVersions": "syngo_MR_B17",
    "SpacingBetweenSlices": 2,
    "StationName": "FMRIFD7T",
    "TaskName": "FullFovNoAttentionTask",
    "TotalReadoutTime": 0.0190001,
    "TxRefAmp": 270,
    "dataset": "ds001555",
    "dcmmeta_affine": [
      [
        -1.9999831914901733,
        4.2201880878778297e-10,
        0.008208253420889378,
        95.76705169677734
      ],
      [
        -0.0013402394251897931,
        1.973159670829773,
        -0.32655632495880127,
        -59.74467468261719
      ],
      [
        0.008098097518086433,
        0.32655906677246094,
        1.9731429815292358,
        -55.7390022277832
      ],
      [
        0.0,
        0.0,
        0.0,
        1.0
      ]
    ],
    "dcmmeta_reorient_transform": [
      [
        0.0,
        -1.0,
        0.0,
        95.0
      ],
      [
        1.0,
        0.0,
        0.0,
        0.0
      ],
      [
        0.0,
        0.0,
        1.0,
        0.0
      ],
      [
        0.0,
        0.0,
        0.0,
        1.0
      ]
    ],
    "dcmmeta_shape": [
      96,
      96,
      54,
      164
    ],
    "dcmmeta_slice_dim": 2,
    "dcmmeta_version": 0.6,
    "global": {
      "const": {
        "AcquisitionMatrix": [
          0,
          96,
          96,
          0
        ],
        "AngioFlag": "N",
        "BitsAllocated": 16,
        "BitsStored": 12,
        "Columns": 768,
        "EchoNumbers": 1,
        "EchoTime": 25.0,
        "EchoTrainLength": 1,
        "FlipAngle": 50.0,
        "HighBit": 11,
        "ImageOrientationPatient": [
          0.99999157803662,
          0.00067011969073,
          0.00404904870684,
          2.110094e-10,
          0.98657984636313,
          -0.1632795356133
        ],
        "ImagePositionPatient": [
          -767.761392775,
          -791.1374745092,
          82.286995969312
        ],
        "ImageType": [
          "ORIGINAL",
          "PRIMARY",
          "M",
          "ND",
          "ECHO_00",
          "MOSAIC"
        ],
        "ImagedNucleus": "1H",
        "ImagingFrequency": 297.204934,
        "InPlanePhaseEncodingDirection": "ROW",
        "LargestImagePixelValue": 4095,
        "MRAcquisitionType": "2D",
        "MagneticFieldStrength": 6.98,
        "Manufacturer": "SIEMENS",
        "ManufacturerModelName": "Investigational_Device_7T",
        "Modality": "MR",
        "NumberOfAverages": 1.0,
        "NumberOfPhaseEncodingSteps": 94,
        "PercentPhaseFieldOfView": 100.0,
        "PercentSampling": 100.0,
        "PerformedProcedureStepStartTime": "125235.937000",
        "PhotometricInterpretation": "MONOCHROME2",
        "PixelBandwidth": 2003.0,
        "PixelRepresentation": 0,
        "PixelSpacing": [
          2.0,
          2.0
        ],
        "PositionReferenceIndicator": "",
        "ProtocolName": "NIH_EPI_2.0iso_TR2_Run01",
        "RepetitionTime": 2000.0,
        "Rows": 768,
        "SAR": 0.07347115807071,
        "SamplesPerPixel": 1,
        "ScanningSequence": "EP",
        "SequenceName": "epfid2d1_96",
        "SequenceVariant": "SK",
        "SeriesDescription": "NIH_EPI_2.0iso_TR2_Run01",
        "SeriesNumber": 5,
        "SliceLocation": -44.842473382871,
        "SliceThickness": 2.0,
        "SmallestImagePixelValue": 0,
        "SoftwareVersions": "syngo MR B17",
        "SpacingBetweenSlices": 1.9999999415377,
        "TransmitCoilName": "32Ch_Head_7T",
        "VariableFlipAngleFlag": "N",
        "WindowCenterWidthExplanation": "Algo1",
        "dBdt": 0.0
      },
      "slices": {}
    },
    "modality": "bold",
    "run_id": 2,
    "session_id": "06",
    "subject_id": "002",
    "task_id": "FullFovNoAttentionTask",
    "time": {
      "samples": {
        "AcquisitionNumber": [
          1,
          2,
          3,
          4,
          5,
          6,
          7,
          8,
          9,
          10,
          11,
          12,
          13,
          14,
          15,
          16,
          17,
          18,
          19,
          20,
          21,
          22,
          23,
          24,
          25,
          26,
          27,
          28,
          29,
          30,
          31,
          32,
          33,
          34,
          35,
          36,
          37,
          38,
          39,
          40,
          41,
          42,
          43,
          44,
          45,
          46,
          47,
          48,
          49,
          50,
          51,
          52,
          53,
          54,
          55,
          56,
          57,
          58,
          59,
          60,
          61,
          62,
          63,
          64,
          65,
          66,
          67,
          68,
          69,
          70,
          71,
          72,
          73,
          74,
          75,
          76,
          77,
          78,
          79,
          80,
          81,
          82,
          83,
          84,
          85,
          86,
          87,
          88,
          89,
          90,
          91,
          92,
          93,
          94,
          95,
          96,
          97,
          98,
          99,
          100,
          101,
          102,
          103,
          104,
          105,
          106,
          107,
          108,
          109,
          110,
          111,
          112,
          113,
          114,
          115,
          116,
          117,
          118,
          119,
          120,
          121,
          122,
          123,
          124,
          125,
          126,
          127,
          128,
          129,
          130,
          131,
          132,
          133,
          134,
          135,
          136,
          137,
          138,
          139,
          140,
          141,
          142,
          143,
          144,
          145,
          146,
          147,
          148,
          149,
          150,
          151,
          152,
          153,
          154,
          155,
          156,
          157,
          158,
          159,
          160,
          161,
          162,
          163,
          164
        ],
        "AcquisitionTime": [
          "130238.227500",
          "130242.245000",
          "130244.252500",
          "130246.260000",
          "130248.267500",
          "130250.277500",
          "130252.285000",
          "130254.292500",
          "130256.300000",
          "130258.307500",
          "130300.317500",
          "130302.325000",
          "130304.332500",
          "130306.340000",
          "130308.347500",
          "130310.357500",
          "130312.365000",
          "130314.372500",
          "130316.380000",
          "130318.390000",
          "130320.397500",
          "130322.405000",
          "130324.412500",
          "130326.420000",
          "130328.430000",
          "130330.437500",
          "130332.445000",
          "130334.452500",
          "130336.460000",
          "130338.470000",
          "130340.477500",
          "130342.485000",
          "130344.492500",
          "130346.500000",
          "130348.510000",
          "130350.517500",
          "130352.525000",
          "130354.532500",
          "130356.542500",
          "130358.550000",
          "130400.557500",
          "130402.565000",
          "130404.572500",
          "130406.582500",
          "130408.590000",
          "130410.597500",
          "130412.605000",
          "130414.612500",
          "130416.622500",
          "130418.630000",
          "130420.637500",
          "130422.645000",
          "130424.655000",
          "130426.662500",
          "130428.670000",
          "130430.677500",
          "130432.685000",
          "130434.695000",
          "130436.702500",
          "130438.710000",
          "130440.717500",
          "130442.725000",
          "130444.735000",
          "130446.742500",
          "130448.750000",
          "130450.757500",
          "130452.767500",
          "130454.775000",
          "130456.782500",
          "130458.790000",
          "130500.797500",
          "130502.807500",
          "130504.815000",
          "130506.822500",
          "130508.830000",
          "130510.837500",
          "130512.847500",
          "130514.855000",
          "130516.862500",
          "130518.870000",
          "130520.880000",
          "130522.887500",
          "130524.895000",
          "130526.902500",
          "130528.910000",
          "130530.920000",
          "130532.927500",
          "130534.935000",
          "130536.942500",
          "130538.950000",
          "130540.960000",
          "130542.967500",
          "130544.975000",
          "130546.982500",
          "130548.990000",
          "130551.000000",
          "130553.007500",
          "130555.015000",
          "130557.022500",
          "130559.032500",
          "130601.040000",
          "130603.047500",
          "130605.055000",
          "130607.062500",
          "130609.072500",
          "130611.080000",
          "130613.087500",
          "130615.095000",
          "130617.102500",
          "130619.112500",
          "130621.120000",
          "130623.127500",
          "130625.135000",
          "130627.145000",
          "130629.152500",
          "130631.160000",
          "130633.167500",
          "130635.175000",
          "130637.185000",
          "130639.192500",
          "130641.200000",
          "130643.207500",
          "130645.215000",
          "130647.225000",
          "130649.232500",
          "130651.240000",
          "130653.247500",
          "130655.257500",
          "130657.265000",
          "130659.272500",
          "130701.280000",
          "130703.287500",
          "130705.297500",
          "130707.305000",
          "130709.312500",
          "130711.320000",
          "130713.327500",
          "130715.337500",
          "130717.345000",
          "130719.352500",
          "130721.360000",
          "130723.367500",
          "130725.377500",
          "130727.385000",
          "130729.392500",
          "130731.400000",
          "130733.410000",
          "130735.417500",
          "130737.425000",
          "130739.432500",
          "130741.440000",
          "130743.450000",
          "130745.457500",
          "130747.465000",
          "130749.472500",
          "130751.480000",
          "130753.490000",
          "130755.497500",
          "130757.505000",
          "130759.512500",
          "130801.522500",
          "130803.530000",
          "130805.537500",
          "130807.545000"
        ],
        "ContentTime": [
          "130338.531000",
          "130338.531000",
          "130338.531000",
          "130338.546000",
          "130338.546000",
          "130338.546000",
          "130338.546000",
          "130338.546000",
          "130338.546000",
          "130338.562000",
          "130338.562000",
          "130338.562000",
          "130338.562000",
          "130338.562000",
          "130338.578000",
          "130338.578000",
          "130338.578000",
          "130338.578000",
          "130338.593000",
          "130338.593000",
          "130338.593000",
          "130338.593000",
          "130338.593000",
          "130338.593000",
          "130338.593000",
          "130338.609000",
          "130338.609000",
          "130338.609000",
          "130338.609000",
          "130418.515000",
          "130418.531000",
          "130418.531000",
          "130418.531000",
          "130418.531000",
          "130418.531000",
          "130418.546000",
          "130418.546000",
          "130418.546000",
          "130418.546000",
          "130418.546000",
          "130418.546000",
          "130418.546000",
          "130418.562000",
          "130418.562000",
          "130418.562000",
          "130418.562000",
          "130418.578000",
          "130418.578000",
          "130418.578000",
          "130458.515000",
          "130458.531000",
          "130458.531000",
          "130458.531000",
          "130458.531000",
          "130458.531000",
          "130458.546000",
          "130458.546000",
          "130458.546000",
          "130458.546000",
          "130458.546000",
          "130458.546000",
          "130458.546000",
          "130458.562000",
          "130458.562000",
          "130458.562000",
          "130458.562000",
          "130458.562000",
          "130458.562000",
          "130458.578000",
          "130538.515000",
          "130538.531000",
          "130538.531000",
          "130538.531000",
          "130538.531000",
          "130538.531000",
          "130538.531000",
          "130538.546000",
          "130538.546000",
          "130538.546000",
          "130538.546000",
          "130538.546000",
          "130538.546000",
          "130538.546000",
          "130538.562000",
          "130538.562000",
          "130538.562000",
          "130538.562000",
          "130538.562000",
          "130538.562000",
          "130618.515000",
          "130618.531000",
          "130618.531000",
          "130618.531000",
          "130618.531000",
          "130618.546000",
          "130618.546000",
          "130618.546000",
          "130618.546000",
          "130618.546000",
          "130618.562000",
          "130618.562000",
          "130618.562000",
          "130618.562000",
          "130618.562000",
          "130618.562000",
          "130618.562000",
          "130618.578000",
          "130618.578000",
          "130618.578000",
          "130658.515000",
          "130658.531000",
          "130658.531000",
          "130658.531000",
          "130658.531000",
          "130658.531000",
          "130658.531000",
          "130658.546000",
          "130658.546000",
          "130658.546000",
          "130658.546000",
          "130658.546000",
          "130658.546000",
          "130658.546000",
          "130658.562000",
          "130658.562000",
          "130658.562000",
          "130658.562000",
          "130658.562000",
          "130658.562000",
          "130718.515000",
          "130718.531000",
          "130718.531000",
          "130718.531000",
          "130718.531000",
          "130718.531000",
          "130718.531000",
          "130718.531000",
          "130718.546000",
          "130718.546000",
          "130758.515000",
          "130758.531000",
          "130758.531000",
          "130758.531000",
          "130758.531000",
          "130758.531000",
          "130758.531000",
          "130758.546000",
          "130758.546000",
          "130758.546000",
          "130758.546000",
          "130758.546000",
          "130758.546000",
          "130758.546000",
          "130758.562000",
          "130758.562000",
          "130758.562000",
          "130758.562000",
          "130758.562000",
          "130758.562000",
          "130807.484000",
          "130807.484000",
          "130807.484000",
          "130807.500000",
          "130807.500000"
        ],
        "InstanceCreationTime": [
          "130338.531000",
          "130338.531000",
          "130338.531000",
          "130338.546000",
          "130338.546000",
          "130338.546000",
          "130338.546000",
          "130338.546000",
          "130338.546000",
          "130338.562000",
          "130338.562000",
          "130338.562000",
          "130338.562000",
          "130338.562000",
          "130338.578000",
          "130338.578000",
          "130338.578000",
          "130338.578000",
          "130338.593000",
          "130338.593000",
          "130338.593000",
          "130338.593000",
          "130338.593000",
          "130338.593000",
          "130338.593000",
          "130338.609000",
          "130338.609000",
          "130338.609000",
          "130338.609000",
          "130418.515000",
          "130418.531000",
          "130418.531000",
          "130418.531000",
          "130418.531000",
          "130418.531000",
          "130418.546000",
          "130418.546000",
          "130418.546000",
          "130418.546000",
          "130418.546000",
          "130418.546000",
          "130418.546000",
          "130418.562000",
          "130418.562000",
          "130418.562000",
          "130418.562000",
          "130418.578000",
          "130418.578000",
          "130418.578000",
          "130458.515000",
          "130458.531000",
          "130458.531000",
          "130458.531000",
          "130458.531000",
          "130458.531000",
          "130458.546000",
          "130458.546000",
          "130458.546000",
          "130458.546000",
          "130458.546000",
          "130458.546000",
          "130458.546000",
          "130458.562000",
          "130458.562000",
          "130458.562000",
          "130458.562000",
          "130458.562000",
          "130458.562000",
          "130458.578000",
          "130538.515000",
          "130538.531000",
          "130538.531000",
          "130538.531000",
          "130538.531000",
          "130538.531000",
          "130538.531000",
          "130538.546000",
          "130538.546000",
          "130538.546000",
          "130538.546000",
          "130538.546000",
          "130538.546000",
          "130538.546000",
          "130538.562000",
          "130538.562000",
          "130538.562000",
          "130538.562000",
          "130538.562000",
          "130538.562000",
          "130618.515000",
          "130618.531000",
          "130618.531000",
          "130618.531000",
          "130618.531000",
          "130618.546000",
          "130618.546000",
          "130618.546000",
          "130618.546000",
          "130618.546000",
          "130618.562000",
          "130618.562000",
          "130618.562000",
          "130618.562000",
          "130618.562000",
          "130618.562000",
          "130618.562000",
          "130618.578000",
          "130618.578000",
          "130618.578000",
          "130658.515000",
          "130658.531000",
          "130658.531000",
          "130658.531000",
          "130658.531000",
          "130658.531000",
          "130658.531000",
          "130658.546000",
          "130658.546000",
          "130658.546000",
          "130658.546000",
          "130658.546000",
          "130658.546000",
          "130658.546000",
          "130658.562000",
          "130658.562000",
          "130658.562000",
          "130658.562000",
          "130658.562000",
          "130658.562000",
          "130718.515000",
          "130718.531000",
          "130718.531000",
          "130718.531000",
          "130718.531000",
          "130718.531000",
          "130718.531000",
          "130718.531000",
          "130718.546000",
          "130718.546000",
          "130758.515000",
          "130758.531000",
          "130758.531000",
          "130758.531000",
          "130758.531000",
          "130758.531000",
          "130758.531000",
          "130758.546000",
          "130758.546000",
          "130758.546000",
          "130758.546000",
          "130758.546000",
          "130758.546000",
          "130758.546000",
          "130758.562000",
          "130758.562000",
          "130758.562000",
          "130758.562000",
          "130758.562000",
          "130758.562000",
          "130807.484000",
          "130807.484000",
          "130807.484000",
          "130807.500000",
          "130807.500000"
        ],
        "InstanceNumber": [
          1,
          2,
          3,
          4,
          5,
          6,
          7,
          8,
          9,
          10,
          11,
          12,
          13,
          14,
          15,
          16,
          17,
          18,
          19,
          20,
          21,
          22,
          23,
          24,
          25,
          26,
          27,
          28,
          29,
          30,
          31,
          32,
          33,
          34,
          35,
          36,
          37,
          38,
          39,
          40,
          41,
          42,
          43,
          44,
          45,
          46,
          47,
          48,
          49,
          50,
          51,
          52,
          53,
          54,
          55,
          56,
          57,
          58,
          59,
          60,
          61,
          62,
          63,
          64,
          65,
          66,
          67,
          68,
          69,
          70,
          71,
          72,
          73,
          74,
          75,
          76,
          77,
          78,
          79,
          80,
          81,
          82,
          83,
          84,
          85,
          86,
          87,
          88,
          89,
          90,
          91,
          92,
          93,
          94,
          95,
          96,
          97,
          98,
          99,
          100,
          101,
          102,
          103,
          104,
          105,
          106,
          107,
          108,
          109,
          110,
          111,
          112,
          113,
          114,
          115,
          116,
          117,
          118,
          119,
          120,
          121,
          122,
          123,
          124,
          125,
          126,
          127,
          128,
          129,
          130,
          131,
          132,
          133,
          134,
          135,
          136,
          137,
          138,
          139,
          140,
          141,
          142,
          143,
          144,
          145,
          146,
          147,
          148,
          149,
          150,
          151,
          152,
          153,
          154,
          155,
          156,
          157,
          158,
          159,
          160,
          161,
          162,
          163,
          164
        ],
        "WindowCenter": [
          1033.0,
          1032.0,
          1032.0,
          1031.0,
          1030.0,
          1032.0,
          1032.0,
          1032.0,
          1035.0,
          1034.0,
          1033.0,
          1033.0,
          1031.0,
          1033.0,
          1032.0,
          1033.0,
          1032.0,
          1033.0,
          1035.0,
          1031.0,
          1032.0,
          1031.0,
          1030.0,
          1031.0,
          1032.0,
          1031.0,
          1031.0,
          1032.0,
          1032.0,
          1031.0,
          1031.0,
          1033.0,
          1035.0,
          1033.0,
          1032.0,
          1033.0,
          1032.0,
          1033.0,
          1032.0,
          1033.0,
          1033.0,
          1032.0,
          1032.0,
          1031.0,
          1033.0,
          1033.0,
          1034.0,
          1033.0,
          1032.0,
          1032.0,
          1033.0,
          1034.0,
          1034.0,
          1033.0,
          1033.0,
          1034.0,
          1034.0,
          1033.0,
          1033.0,
          1035.0,
          1036.0,
          1033.0,
          1032.0,
          1034.0,
          1035.0,
          1032.0,
          1033.0,
          1035.0,
          1033.0,
          1033.0,
          1034.0,
          1033.0,
          1034.0,
          1033.0,
          1033.0,
          1034.0,
          1034.0,
          1033.0,
          1033.0,
          1034.0,
          1032.0,
          1032.0,
          1031.0,
          1032.0,
          1032.0,
          1030.0,
          1033.0,
          1032.0,
          1032.0,
          1033.0,
          1033.0,
          1033.0,
          1033.0,
          1034.0,
          1035.0,
          1034.0,
          1034.0,
          1031.0,
          1032.0,
          1032.0,
          1032.0,
          1033.0,
          1032.0,
          1032.0,
          1034.0,
          1033.0,
          1032.0,
          1033.0,
          1034.0,
          1035.0,
          1035.0,
          1033.0,
          1034.0,
          1034.0,
          1033.0,
          1033.0,
          1032.0,
          1034.0,
          1034.0,
          1035.0,
          1034.0,
          1034.0,
          1035.0,
          1034.0,
          1033.0,
          1032.0,
          1033.0,
          1034.0,
          1036.0,
          1034.0,
          1031.0,
          1031.0,
          1033.0,
          1032.0,
          1031.0,
          1033.0,
          1032.0,
          1032.0,
          1034.0,
          1032.0,
          1032.0,
          1031.0,
          1031.0,
          1033.0,
          1033.0,
          1032.0,
          1032.0,
          1031.0,
          1033.0,
          1033.0,
          1034.0,
          1035.0,
          1035.0,
          1034.0,
          1034.0,
          1035.0,
          1034.0,
          1034.0,
          1033.0,
          1032.0,
          1032.0,
          1034.0,
          1035.0,
          1035.0
        ],
        "WindowWidth": [
          2729.0,
          2720.0,
          2730.0,
          2727.0,
          2718.0,
          2730.0,
          2728.0,
          2729.0,
          2739.0,
          2733.0,
          2733.0,
          2728.0,
          2727.0,
          2729.0,
          2729.0,
          2729.0,
          2723.0,
          2735.0,
          2732.0,
          2721.0,
          2727.0,
          2722.0,
          2722.0,
          2727.0,
          2721.0,
          2721.0,
          2717.0,
          2732.0,
          2726.0,
          2725.0,
          2721.0,
          2731.0,
          2733.0,
          2727.0,
          2733.0,
          2731.0,
          2727.0,
          2734.0,
          2725.0,
          2729.0,
          2733.0,
          2726.0,
          2725.0,
          2716.0,
          2730.0,
          2726.0,
          2732.0,
          2727.0,
          2730.0,
          2726.0,
          2733.0,
          2734.0,
          2732.0,
          2730.0,
          2729.0,
          2735.0,
          2734.0,
          2728.0,
          2726.0,
          2734.0,
          2731.0,
          2726.0,
          2723.0,
          2739.0,
          2729.0,
          2725.0,
          2730.0,
          2736.0,
          2726.0,
          2728.0,
          2733.0,
          2726.0,
          2734.0,
          2724.0,
          2731.0,
          2730.0,
          2730.0,
          2728.0,
          2727.0,
          2727.0,
          2719.0,
          2721.0,
          2715.0,
          2721.0,
          2718.0,
          2713.0,
          2725.0,
          2717.0,
          2720.0,
          2726.0,
          2722.0,
          2731.0,
          2725.0,
          2731.0,
          2735.0,
          2732.0,
          2723.0,
          2714.0,
          2723.0,
          2717.0,
          2726.0,
          2725.0,
          2721.0,
          2722.0,
          2727.0,
          2724.0,
          2721.0,
          2722.0,
          2724.0,
          2731.0,
          2730.0,
          2723.0,
          2731.0,
          2729.0,
          2723.0,
          2722.0,
          2719.0,
          2726.0,
          2726.0,
          2726.0,
          2723.0,
          2732.0,
          2732.0,
          2725.0,
          2726.0,
          2720.0,
          2723.0,
          2732.0,
          2730.0,
          2724.0,
          2717.0,
          2720.0,
