{
  "aor": 0.000935609756097561,
  "aqi": 0.004868154329268293,
  "bids_meta": {
    "AcquisitionMatrixPE": 96,
    "AcquisitionNumber": 1,
    "AcquisitionTime": "13:47:4.287500",
    "BandwidthPerPixelPhaseEncode": 52.083,
    "BaseResolution": 96,
    "ConversionSoftware": "dcm2niix",
    "ConversionSoftwareVersion": "v1.0.20180622 GCC6.3.0",
    "DerivedVendorReportedEchoSpacing": 0.000600004,
    "DeviceSerialNumber": "18926",
    "DwellTime": 2.6e-06,
    "EchoTime": 0.025,
    "EffectiveEchoSpacing": 0.000200001,
    "FlipAngle": 50,
    "ImageOrientationPatientDICOM": [
      0.999992,
      0.00067012,
      0.00404905,
      2.11009e-10,
      0.98658,
      -0.16328
    ],
    "ImageType": [
      "ORIGINAL",
      "PRIMARY",
      "M",
      "ND",
      "ECHO",
      "00",
      "MOSAIC"
    ],
    "InPlanePhaseEncodingDirectionDICOM": "ROW",
    "InstitutionName": "NIMH",
    "InstitutionalDepartmentName": "Department",
    "MRAcquisitionType": "2D",
    "MagneticFieldStrength": 6.98,
    "Manufacturer": "Siemens",
    "ManufacturersModelName": "Investigational_Device_7T",
    "Modality": "MR",
    "ParallelReductionFactorInPlane": 3,
    "PartialFourier": 1,
    "PatientPosition": "HFS",
    "PercentPhaseFOV": 100,
    "PhaseEncodingDirection": "i",
    "PhaseEncodingSteps": 94,
    "PhaseResolution": 1,
    "PixelBandwidth": 2003,
    "ProcedureStepDescription": "UserProtocols_FMRIF_Templates",
    "ProtocolName": "NIH_EPI_2.0iso_TR2_Run08",
    "PulseSequenceDetails": "%CustomerSeq%_inati_nih_epi",
    "ReceiveCoilName": "32Ch_Head_7T",
    "ReconMatrixPE": 96,
    "RepetitionTime": 2,
    "SAR": 0.0734712,
    "ScanningSequence": "EP",
    "SequenceName": "epfid2d1_96",
    "SequenceVariant": "SK",
    "SeriesDescription": "NIH_EPI_2.0iso_TR2_Run08",
    "SeriesNumber": 12,
    "ShimSetting": [
      -115,
      266,
      1196,
      1579,
      -89,
      563,
      139,
      -272
    ],
    "SliceThickness": 2,
    "SliceTiming": [
      1.005,
      0,
      1.0425,
      0.0375,
      1.08,
      0.075,
      1.115,
      0.1125,
      1.1525,
      0.15,
      1.19,
      0.1875,
      1.2275,
      0.225,
      1.265,
      0.26,
      1.3025,
      0.2975,
      1.34,
      0.335,
      1.3775,
      0.3725,
      1.4125,
      0.41,
      1.45,
      0.4475,
      1.4875,
      0.485,
      1.525,
      0.52,
      1.5625,
      0.5575,
      1.6,
      0.595,
      1.6375,
      0.6325,
      1.675,
      0.67,
      1.71,
      0.7075,
      1.7475,
      0.745,
      1.785,
      0.7825,
      1.8225,
      0.8175,
      1.86,
      0.855,
      1.8975,
      0.8925,
      1.935,
      0.93,
      1.97,
      0.9675
    ],
    "SoftwareVersions": "syngo_MR_B17",
    "SpacingBetweenSlices": 2,
    "StationName": "FMRIFD7T",
    "TaskName": "FullFovNoAttentionTask",
    "TotalReadoutTime": 0.0190001,
    "TxRefAmp": 270,
    "dataset": "ds001555",
    "dcmmeta_affine": [
      [
        -1.9999831914901733,
        4.2201880878778297e-10,
        0.008208253420889378,
        95.76705169677734
      ],
      [
        -0.0013402394251897931,
        1.973159670829773,
        -0.32655632495880127,
        -59.74467468261719
      ],
      [
        0.008098097518086433,
        0.32655906677246094,
        1.9731429815292358,
        -55.7390022277832
      ],
      [
        0.0,
        0.0,
        0.0,
        1.0
      ]
    ],
    "dcmmeta_reorient_transform": [
      [
        0.0,
        -1.0,
        0.0,
        95.0
      ],
      [
        1.0,
        0.0,
        0.0,
        0.0
      ],
      [
        0.0,
        0.0,
        1.0,
        0.0
      ],
      [
        0.0,
        0.0,
        0.0,
        1.0
      ]
    ],
    "dcmmeta_shape": [
      96,
      96,
      54,
      164
    ],
    "dcmmeta_slice_dim": 2,
    "dcmmeta_version": 0.6,
    "global": {
      "const": {
        "AcquisitionMatrix": [
          0,
          96,
          96,
          0
        ],
        "AngioFlag": "N",
        "BitsAllocated": 16,
        "BitsStored": 12,
        "Columns": 768,
        "EchoNumbers": 1,
        "EchoTime": 25.0,
        "EchoTrainLength": 1,
        "FlipAngle": 50.0,
        "HighBit": 11,
        "ImageOrientationPatient": [
          0.99999157803662,
          0.00067011969073,
          0.00404904870684,
          2.110094e-10,
          0.98657984636313,
          -0.1632795356133
        ],
        "ImagePositionPatient": [
          -767.761392775,
          -791.1374745092,
          82.286995969312
        ],
        "ImageType": [
          "ORIGINAL",
          "PRIMARY",
          "M",
          "ND",
          "ECHO_00",
          "MOSAIC"
        ],
        "ImagedNucleus": "1H",
        "ImagingFrequency": 297.205096,
        "InPlanePhaseEncodingDirection": "ROW",
        "LargestImagePixelValue": 4095,
        "MRAcquisitionType": "2D",
        "MagneticFieldStrength": 6.98,
        "Manufacturer": "SIEMENS",
        "ManufacturerModelName": "Investigational_Device_7T",
        "Modality": "MR",
        "NumberOfAverages": 1.0,
        "NumberOfPhaseEncodingSteps": 94,
        "PercentPhaseFieldOfView": 100.0,
        "PercentSampling": 100.0,
        "PerformedProcedureStepStartTime": "125235.937000",
        "PhotometricInterpretation": "MONOCHROME2",
        "PixelBandwidth": 2003.0,
        "PixelRepresentation": 0,
        "PixelSpacing": [
          2.0,
          2.0
        ],
        "PositionReferenceIndicator": "",
        "ProtocolName": "NIH_EPI_2.0iso_TR2_Run08",
        "RepetitionTime": 2000.0,
        "Rows": 768,
        "SAR": 0.07347115807071,
        "SamplesPerPixel": 1,
        "ScanningSequence": "EP",
        "SequenceName": "epfid2d1_96",
        "SequenceVariant": "SK",
        "SeriesDescription": "NIH_EPI_2.0iso_TR2_Run08",
        "SeriesNumber": 12,
        "SliceLocation": -44.842473382871,
        "SliceThickness": 2.0,
        "SmallestImagePixelValue": 0,
        "SoftwareVersions": "syngo MR B17",
        "SpacingBetweenSlices": 1.9999999415377,
        "TransmitCoilName": "32Ch_Head_7T",
        "VariableFlipAngleFlag": "N",
        "WindowCenterWidthExplanation": "Algo1",
        "dBdt": 0.0
      },
      "slices": {}
    },
    "modality": "bold",
    "run_id": 9,
    "session_id": "06",
    "subject_id": "002",
    "task_id": "FullFovNoAttentionTask",
    "time": {
      "samples": {
        "AcquisitionNumber": [
          1,
          2,
          3,
          4,
          5,
          6,
          7,
          8,
          9,
          10,
          11,
          12,
          13,
          14,
          15,
          16,
          17,
          18,
          19,
          20,
          21,
          22,
          23,
          24,
          25,
          26,
          27,
          28,
          29,
          30,
          31,
          32,
          33,
          34,
          35,
          36,
          37,
          38,
          39,
          40,
          41,
          42,
          43,
          44,
          45,
          46,
          47,
          48,
          49,
          50,
          51,
          52,
          53,
          54,
          55,
          56,
          57,
          58,
          59,
          60,
          61,
          62,
          63,
          64,
          65,
          66,
          67,
          68,
          69,
          70,
          71,
          72,
          73,
          74,
          75,
          76,
          77,
          78,
          79,
          80,
          81,
          82,
          83,
          84,
          85,
          86,
          87,
          88,
          89,
          90,
          91,
          92,
          93,
          94,
          95,
          96,
          97,
          98,
          99,
          100,
          101,
          102,
          103,
          104,
          105,
          106,
          107,
          108,
          109,
          110,
          111,
          112,
          113,
          114,
          115,
          116,
          117,
          118,
          119,
          120,
          121,
          122,
          123,
          124,
          125,
          126,
          127,
          128,
          129,
          130,
          131,
          132,
          133,
          134,
          135,
          136,
          137,
          138,
          139,
          140,
          141,
          142,
          143,
          144,
          145,
          146,
          147,
          148,
          149,
          150,
          151,
          152,
          153,
          154,
          155,
          156,
          157,
          158,
          159,
          160,
          161,
          162,
          163,
          164
        ],
        "AcquisitionTime": [
          "134704.287500",
          "134708.302500",
          "134710.310000",
          "134712.320000",
          "134714.327500",
          "134716.335000",
          "134718.342500",
          "134720.352500",
          "134722.360000",
          "134724.367500",
          "134726.375000",
          "134728.382500",
          "134730.392500",
          "134732.400000",
          "134734.407500",
          "134736.415000",
          "134738.422500",
          "134740.432500",
          "134742.440000",
          "134744.447500",
          "134746.455000",
          "134748.465000",
          "134750.472500",
          "134752.480000",
          "134754.487500",
          "134756.495000",
          "134758.505000",
          "134800.512500",
          "134802.520000",
          "134804.527500",
          "134806.535000",
          "134808.545000",
          "134810.552500",
          "134812.560000",
          "134814.567500",
          "134816.575000",
          "134818.585000",
          "134820.592500",
          "134822.600000",
          "134824.607500",
          "134826.617500",
          "134828.625000",
          "134830.632500",
          "134832.640000",
          "134834.647500",
          "134836.657500",
          "134838.665000",
          "134840.672500",
          "134842.680000",
          "134844.687500",
          "134846.697500",
          "134848.705000",
          "134850.712500",
          "134852.720000",
          "134854.730000",
          "134856.737500",
          "134858.745000",
          "134900.752500",
          "134902.760000",
          "134904.770000",
          "134906.777500",
          "134908.785000",
          "134910.792500",
          "134912.800000",
          "134914.810000",
          "134916.817500",
          "134918.825000",
          "134920.832500",
          "134922.842500",
          "134924.850000",
          "134926.857500",
          "134928.865000",
          "134930.872500",
          "134932.882500",
          "134934.890000",
          "134936.897500",
          "134938.905000",
          "134940.912500",
          "134942.922500",
          "134944.930000",
          "134946.937500",
          "134948.945000",
          "134950.952500",
          "134952.962500",
          "134954.970000",
          "134956.977500",
          "134958.985000",
          "135000.995000",
          "135003.002500",
          "135005.010000",
          "135007.017500",
          "135009.025000",
          "135011.035000",
          "135013.042500",
          "135015.050000",
          "135017.057500",
          "135019.065000",
          "135021.075000",
          "135023.082500",
          "135025.090000",
          "135027.097500",
          "135029.107500",
          "135031.115000",
          "135033.122500",
          "135035.130000",
          "135037.137500",
          "135039.147500",
          "135041.155000",
          "135043.162500",
          "135045.170000",
          "135047.177500",
          "135049.187500",
          "135051.195000",
          "135053.202500",
          "135055.210000",
          "135057.220000",
          "135059.227500",
          "135101.235000",
          "135103.242500",
          "135105.250000",
          "135107.260000",
          "135109.267500",
          "135111.275000",
          "135113.282500",
          "135115.290000",
          "135117.300000",
          "135119.307500",
          "135121.315000",
          "135123.322500",
          "135125.330000",
          "135127.340000",
          "135129.347500",
          "135131.355000",
          "135133.362500",
          "135135.372500",
          "135137.380000",
          "135139.387500",
          "135141.395000",
          "135143.402500",
          "135145.412500",
          "135147.420000",
          "135149.427500",
          "135151.435000",
          "135153.442500",
          "135155.452500",
          "135157.460000",
          "135159.467500",
          "135201.475000",
          "135203.485000",
          "135205.492500",
          "135207.500000",
          "135209.507500",
          "135211.515000",
          "135213.525000",
          "135215.532500",
          "135217.540000",
          "135219.547500",
          "135221.555000",
          "135223.565000",
          "135225.572500",
          "135227.580000",
          "135229.587500",
          "135231.597500",
          "135233.605000"
        ],
        "ContentTime": [
          "134722.453000",
          "134722.468000",
          "134722.468000",
          "134722.468000",
          "134722.468000",
          "134722.468000",
          "134802.453000",
          "134802.453000",
          "134802.453000",
          "134802.453000",
          "134802.453000",
          "134802.468000",
          "134802.468000",
          "134802.468000",
          "134802.468000",
          "134802.468000",
          "134802.468000",
          "134802.484000",
          "134802.484000",
          "134802.484000",
          "134802.500000",
          "134802.500000",
          "134802.500000",
          "134802.500000",
          "134802.500000",
          "134802.500000",
          "134802.515000",
          "134802.515000",
          "134842.453000",
          "134842.453000",
          "134842.453000",
          "134842.453000",
          "134842.453000",
          "134842.468000",
          "134842.468000",
          "134842.468000",
          "134842.468000",
          "134842.468000",
          "134842.468000",
          "134842.468000",
          "134842.484000",
          "134842.484000",
          "134842.484000",
          "134842.484000",
          "134842.484000",
          "134842.484000",
          "134842.500000",
          "134842.500000",
          "134922.453000",
          "134922.453000",
          "134922.453000",
          "134922.453000",
          "134922.453000",
          "134922.468000",
          "134922.468000",
          "134922.468000",
          "134922.468000",
          "134922.468000",
          "134922.468000",
          "134922.484000",
          "134922.484000",
          "134922.484000",
          "134922.484000",
          "134922.484000",
          "134922.484000",
          "134922.500000",
          "134922.500000",
          "134922.500000",
          "135002.453000",
          "135002.453000",
          "135002.453000",
          "135002.453000",
          "135002.453000",
          "135002.468000",
          "135002.468000",
          "135002.468000",
          "135002.468000",
          "135002.468000",
          "135002.468000",
          "135002.468000",
          "135002.484000",
          "135002.484000",
          "135002.484000",
          "135002.484000",
          "135002.484000",
          "135002.484000",
          "135002.484000",
          "135002.500000",
          "135042.453000",
          "135042.453000",
          "135042.453000",
          "135042.453000",
          "135042.468000",
          "135042.468000",
          "135042.468000",
          "135042.468000",
          "135042.468000",
          "135042.484000",
          "135042.484000",
          "135042.484000",
          "135042.484000",
          "135042.484000",
          "135042.484000",
          "135042.484000",
          "135042.500000",
          "135042.500000",
          "135042.500000",
          "135042.500000",
          "135122.453000",
          "135122.453000",
          "135122.453000",
          "135122.453000",
          "135122.468000",
          "135122.468000",
          "135122.468000",
          "135122.468000",
          "135122.484000",
          "135122.484000",
          "135122.484000",
          "135122.484000",
          "135122.484000",
          "135122.484000",
          "135122.484000",
          "135122.500000",
          "135122.500000",
          "135122.500000",
          "135122.500000",
          "135122.500000",
          "135202.453000",
          "135202.453000",
          "135202.453000",
          "135202.453000",
          "135202.453000",
          "135202.468000",
          "135202.468000",
          "135202.468000",
          "135202.468000",
          "135202.468000",
          "135202.468000",
          "135202.468000",
          "135202.484000",
          "135202.484000",
          "135202.484000",
          "135202.500000",
          "135202.500000",
          "135202.500000",
          "135202.500000",
          "135202.500000",
          "135233.515000",
          "135233.531000",
          "135233.531000",
          "135233.531000",
          "135233.531000",
          "135233.531000",
          "135233.546000",
          "135233.546000",
          "135233.562000",
          "135233.562000",
          "135233.562000",
          "135233.562000",
          "135233.578000",
          "135233.578000",
          "135233.578000",
          "135233.578000"
        ],
        "InstanceCreationTime": [
          "134722.453000",
          "134722.468000",
          "134722.468000",
          "134722.468000",
          "134722.468000",
          "134722.468000",
          "134802.453000",
          "134802.453000",
          "134802.453000",
          "134802.453000",
          "134802.453000",
          "134802.468000",
          "134802.468000",
          "134802.468000",
          "134802.468000",
          "134802.468000",
          "134802.468000",
          "134802.484000",
          "134802.484000",
          "134802.484000",
          "134802.500000",
          "134802.500000",
          "134802.500000",
          "134802.500000",
          "134802.500000",
          "134802.500000",
          "134802.515000",
          "134802.515000",
          "134842.453000",
          "134842.453000",
          "134842.453000",
          "134842.453000",
          "134842.453000",
          "134842.468000",
          "134842.468000",
          "134842.468000",
          "134842.468000",
          "134842.468000",
          "134842.468000",
          "134842.468000",
          "134842.484000",
          "134842.484000",
          "134842.484000",
          "134842.484000",
          "134842.484000",
          "134842.484000",
          "134842.500000",
          "134842.500000",
          "134922.453000",
          "134922.453000",
          "134922.453000",
          "134922.453000",
          "134922.453000",
          "134922.468000",
          "134922.468000",
          "134922.468000",
          "134922.468000",
          "134922.468000",
          "134922.468000",
          "134922.484000",
          "134922.484000",
          "134922.484000",
          "134922.484000",
          "134922.484000",
          "134922.484000",
          "134922.500000",
          "134922.500000",
          "134922.500000",
          "135002.453000",
          "135002.453000",
          "135002.453000",
          "135002.453000",
          "135002.453000",
          "135002.468000",
          "135002.468000",
          "135002.468000",
          "135002.468000",
          "135002.468000",
          "135002.468000",
          "135002.468000",
          "135002.484000",
          "135002.484000",
          "135002.484000",
          "135002.484000",
          "135002.484000",
          "135002.484000",
          "135002.484000",
          "135002.500000",
          "135042.453000",
          "135042.453000",
          "135042.453000",
          "135042.453000",
          "135042.468000",
          "135042.468000",
          "135042.468000",
          "135042.468000",
          "135042.468000",
          "135042.484000",
          "135042.484000",
          "135042.484000",
          "135042.484000",
          "135042.484000",
          "135042.484000",
          "135042.484000",
          "135042.500000",
          "135042.500000",
          "135042.500000",
          "135042.500000",
          "135122.453000",
          "135122.453000",
          "135122.453000",
          "135122.453000",
          "135122.468000",
          "135122.468000",
          "135122.468000",
          "135122.468000",
          "135122.484000",
          "135122.484000",
          "135122.484000",
          "135122.484000",
          "135122.484000",
          "135122.484000",
          "135122.484000",
          "135122.500000",
          "135122.500000",
          "135122.500000",
          "135122.500000",
          "135122.500000",
          "135202.453000",
          "135202.453000",
          "135202.453000",
          "135202.453000",
          "135202.453000",
          "135202.468000",
          "135202.468000",
          "135202.468000",
          "135202.468000",
          "135202.468000",
          "135202.468000",
          "135202.468000",
          "135202.484000",
          "135202.484000",
          "135202.484000",
          "135202.500000",
          "135202.500000",
          "135202.500000",
          "135202.500000",
          "135202.500000",
          "135233.515000",
          "135233.531000",
          "135233.531000",
          "135233.531000",
          "135233.531000",
          "135233.531000",
          "135233.546000",
          "135233.546000",
          "135233.562000",
          "135233.562000",
          "135233.562000",
          "135233.562000",
          "135233.578000",
          "135233.578000",
          "135233.578000",
          "135233.578000"
        ],
        "InstanceNumber": [
          1,
          2,
          3,
          4,
          5,
          6,
          7,
          8,
          9,
          10,
          11,
          12,
          13,
          14,
          15,
          16,
          17,
          18,
          19,
          20,
          21,
          22,
          23,
          24,
          25,
          26,
          27,
          28,
          29,
          30,
          31,
          32,
          33,
          34,
          35,
          36,
          37,
          38,
          39,
          40,
          41,
          42,
          43,
          44,
          45,
          46,
          47,
          48,
          49,
          50,
          51,
          52,
          53,
          54,
          55,
          56,
          57,
          58,
          59,
          60,
          61,
          62,
          63,
          64,
          65,
          66,
          67,
          68,
          69,
          70,
          71,
          72,
          73,
          74,
          75,
          76,
          77,
          78,
          79,
          80,
          81,
          82,
          83,
          84,
          85,
          86,
          87,
          88,
          89,
          90,
          91,
          92,
          93,
          94,
          95,
          96,
          97,
          98,
          99,
          100,
          101,
          102,
          103,
          104,
          105,
          106,
          107,
          108,
          109,
          110,
          111,
          112,
          113,
          114,
          115,
          116,
          117,
          118,
          119,
          120,
          121,
          122,
          123,
          124,
          125,
          126,
          127,
          128,
          129,
          130,
          131,
          132,
          133,
          134,
          135,
          136,
          137,
          138,
          139,
          140,
          141,
          142,
          143,
          144,
          145,
          146,
          147,
          148,
          149,
          150,
          151,
          152,
          153,
          154,
          155,
          156,
          157,
          158,
          159,
          160,
          161,
          162,
          163,
          164
        ],
        "WindowCenter": [
          1030.0,
          1028.0,
          1029.0,
          1028.0,
          1028.0,
          1027.0,
          1028.0,
          1029.0,
          1027.0,
          1027.0,
          1028.0,
          1030.0,
          1030.0,
          1030.0,
          1027.0,
          1025.0,
          1026.0,
          1025.0,
          1027.0,
          1027.0,
          1024.0,
          1028.0,
          1027.0,
          1026.0,
          1027.0,
          1026.0,
          1028.0,
          1029.0,
          1026.0,
          1026.0,
          1025.0,
          1026.0,
          1027.0,
          1025.0,
          1027.0,
          1027.0,
          1026.0,
          1027.0,
          1026.0,
          1027.0,
          1027.0,
          1027.0,
          1026.0,
          1027.0,
          1026.0,
          1027.0,
          1028.0,
          1028.0,
          1028.0,
          1028.0,
          1028.0,
          1026.0,
          1026.0,
          1025.0,
          1027.0,
          1028.0,
          1027.0,
          1026.0,
          1026.0,
          1026.0,
          1026.0,
          1027.0,
          1026.0,
          1027.0,
          1029.0,
          1028.0,
          1028.0,
          1028.0,
          1028.0,
          1027.0,
          1029.0,
          1027.0,
          1027.0,
          1027.0,
          1027.0,
          1028.0,
          1027.0,
          1029.0,
          1029.0,
          1028.0,
          1027.0,
          1029.0,
          1028.0,
          1029.0,
          1029.0,
          1028.0,
          1028.0,
          1027.0,
          1030.0,
          1030.0,
          1029.0,
          1027.0,
          1029.0,
          1030.0,
          1029.0,
          1027.0,
          1029.0,
          1029.0,
          1029.0,
          1030.0,
          1028.0,
          1029.0,
          1028.0,
          1030.0,
          1031.0,
          1029.0,
          1030.0,
          1030.0,
          1029.0,
          1029.0,
          1027.0,
          1028.0,
          1030.0,
          1028.0,
          1029.0,
          1029.0,
          1029.0,
          1029.0,
          1028.0,
          1029.0,
          1028.0,
          1029.0,
          1030.0,
          1031.0,
          1030.0,
          1029.0,
          1028.0,
          1028.0,
          1031.0,
          1032.0,
          1031.0,
          1030.0,
          1028.0,
          1028.0,
          1028.0,
          1029.0,
          1030.0,
          1030.0,
          1030.0,
          1028.0,
          1030.0,
          1031.0,
          1028.0,
          1028.0,
          1029.0,
          1027.0,
          1030.0,
          1030.0,
          1028.0,
          1028.0,
          1027.0,
          1030.0,
          1030.0,
          1029.0,
          1027.0,
          1028.0,
          1029.0,
          1029.0,
          1030.0,
          1029.0,
          1028.0,
          1030.0,
          1031.0,
          1031.0
        ],
        "WindowWidth": [
          2719.0,
          2713.0,
          2718.0,
          2709.0,
          2711.0,
          2705.0,
          2723.0,
          2713.0,
          2705.0,
          2708.0,
          2714.0,
          2724.0,
          2718.0,
          2717.0,
          2702.0,
          2697.0,
          2701.0,
          2698.0,
          2705.0,
          2703.0,
          2695.0,
          2707.0,
          2703.0,
          2700.0,
          2705.0,
          2698.0,
          2711.0,
          2708.0,
          2699.0,
          2702.0,
          2694.0,
          2705.0,
          2700.0,
          2697.0,
          2706.0,
          2699.0,
          2705.0,
          2698.0,
          2701.0,
          2703.0,
          2703.0,
          2703.0,
          2698.0,
          2705.0,
          2701.0,
          2704.0,
          2700.0,
          2711.0,
          2702.0,
          2706.0,
          2703.0,
          2704.0,
          2700.0,
          2701.0,
          2708.0,
          2700.0,
          2702.0,
          2698.0,
          2699.0,
          2703.0,
          2697.0,
          2704.0,
          2697.0,
          2708.0,
          2708.0,
          2706.0,
          2708.0,
          2707.0,
          2707.0,
          2704.0,
          2709.0,
          2703.0,
          2702.0,
          2700.0,
          2705.0,
          2700.0,
          2701.0,
          2709.0,
          2710.0,
          2701.0,
          2703.0,
          2704.0,
          2699.0,
          2712.0,
          2706.0,
          2709.0,
          2699.0,
          2701.0,
          2719.0,
          2715.0,
          2706.0,
          2698.0,
          2711.0,
          2717.0,
          2708.0,
          2698.0,
          2709.0,
          2705.0,
          2710.0,
          2713.0,
          2701.0,
          2707.0,
          2703.0,
          2711.0,
          2718.0,
          2705.0,
          2722.0,
          2718.0,
          2706.0,
          2709.0,
          2697.0,
          2706.0,
          2711.0,
          2700.0,
          2707.0,
          2709.0,
          2704.0,
          2708.0,
          2698.0,
          2707.0,
          2699.0,
          2705.0,
          2709.0,
          2708.0,
          2709.0,
          2702.0,
          2703.0,
          2703.0,
          2719.0,
          2712.0,
          2718.0,
          2713.0,
