{
  "aor": 0.004914756097560975,
  "aqi": 0.0061763031707317085,
  "bids_meta": {
    "AcquisitionMatrixPE": 96,
    "AcquisitionNumber": 1,
    "AcquisitionTime": "16:39:56.925000",
    "BandwidthPerPixelPhaseEncode": 52.083,
    "BaseResolution": 96,
    "BodyPartExamined": "HEAD",
    "ConversionSoftware": "dcm2niix",
    "ConversionSoftwareVersion": "v1.0.20180622 GCC6.3.0",
    "DerivedVendorReportedEchoSpacing": 0.000600004,
    "DeviceSerialNumber": "18926",
    "DwellTime": 2.6e-06,
    "EchoTime": 0.025,
    "EffectiveEchoSpacing": 0.000200001,
    "FlipAngle": 50,
    "ImageOrientationPatientDICOM": [
      1,
      -2.05103e-10,
      0,
      2.05103e-10,
      1,
      0
    ],
    "ImageType": [
      "ORIGINAL",
      "PRIMARY",
      "M",
      "ND",
      "ECHO",
      "00",
      "MOSAIC"
    ],
    "InPlanePhaseEncodingDirectionDICOM": "ROW",
    "InstitutionName": "NIMH",
    "InstitutionalDepartmentName": "Department",
    "MRAcquisitionType": "2D",
    "MagneticFieldStrength": 6.98,
    "Manufacturer": "Siemens",
    "ManufacturersModelName": "Investigational_Device_7T",
    "Modality": "MR",
    "ParallelReductionFactorInPlane": 3,
    "PartialFourier": 1,
    "PatientPosition": "HFS",
    "PercentPhaseFOV": 100,
    "PhaseEncodingDirection": "i",
    "PhaseEncodingSteps": 94,
    "PhaseResolution": 1,
    "PixelBandwidth": 2003,
    "ProcedureStepDescription": "MRI_Procedure_Limited",
    "ProtocolName": "NIH_EPI_2.0iso_TR2_Run02.2",
    "PulseSequenceDetails": "%CustomerSeq%_inati_nih_epi",
    "ReceiveCoilName": "32Ch_Head_7T",
    "ReconMatrixPE": 96,
    "RepetitionTime": 2,
    "SAR": 0.0812167,
    "ScanningSequence": "EP",
    "SequenceName": "epfid2d1_96",
    "SequenceVariant": "SK",
    "SeriesDescription": "NIH_EPI_2.0iso_TR2_Run02.2",
    "SeriesNumber": 8,
    "ShimSetting": [
      -120,
      133,
      1277,
      2388,
      -223,
      615,
      308,
      -340
    ],
    "SliceThickness": 2,
    "SliceTiming": [
      1.0025,
      0,
      1.04,
      0.0375,
      1.0775,
      0.0725,
      1.115,
      0.11,
      1.1525,
      0.1475,
      1.19,
      0.185,
      1.225,
      0.2225,
      1.2625,
      0.26,
      1.3,
      0.2975,
      1.3375,
      0.3325,
      1.375,
      0.37,
      1.4125,
      0.4075,
      1.45,
      0.445,
      1.485,
      0.4825,
      1.5225,
      0.52,
      1.56,
      0.5575,
      1.5975,
      0.595,
      1.635,
      0.63,
      1.6725,
      0.6675,
      1.71,
      0.705,
      1.7475,
      0.7425,
      1.7825,
      0.78,
      1.82,
      0.8175,
      1.8575,
      0.855,
      1.895,
      0.8925,
      1.9325,
      0.9275,
      1.97,
      0.965
    ],
    "SoftwareVersions": "syngo_MR_B17",
    "SpacingBetweenSlices": 2,
    "StationName": "FMRIFD7T",
    "TaskName": "FullFovAttentionTask",
    "TotalReadoutTime": 0.0190001,
    "TxRefAmp": 286,
    "dataset": "ds001555",
    "dcmmeta_affine": [
      [
        -2.0,
        4.1020681296188855e-10,
        0.0,
        95.98538208007812
      ],
      [
        4.1020681296188855e-10,
        2.0,
        0.0,
        -72.42303466796875
      ],
      [
        0.0,
        0.0,
        2.0,
        -30.593246459960938
      ],
      [
        0.0,
        0.0,
        0.0,
        1.0
      ]
    ],
    "dcmmeta_reorient_transform": [
      [
        0.0,
        -1.0,
        0.0,
        95.0
      ],
      [
        1.0,
        0.0,
        0.0,
        0.0
      ],
      [
        0.0,
        0.0,
        1.0,
        0.0
      ],
      [
        0.0,
        0.0,
        0.0,
        1.0
      ]
    ],
    "dcmmeta_shape": [
      96,
      96,
      54,
      164
    ],
    "dcmmeta_slice_dim": 2,
    "dcmmeta_version": 0.6,
    "global": {
      "const": {
        "AcquisitionMatrix": [
          0,
          96,
          96,
          0
        ],
        "Allergies": "No Known Allergies",
        "AngioFlag": "N",
        "BitsAllocated": 16,
        "BitsStored": 12,
        "BodyPartExamined": "HEAD",
        "Columns": 768,
        "EchoNumbers": 1,
        "EchoTime": 25.0,
        "EchoTrainLength": 1,
        "FlipAngle": 50.0,
        "HighBit": 11,
        "ImageOrientationPatient": [
          1.0,
          -2.051034e-10,
          0.0,
          2.051034e-10,
          1.0,
          0.0
        ],
        "ImagePositionPatient": [
          -767.98537955166,
          -789.57696326716,
          -30.593246459961
        ],
        "ImageType": [
          "ORIGINAL",
          "PRIMARY",
          "M",
          "ND",
          "ECHO_00",
          "MOSAIC"
        ],
        "ImagedNucleus": "1H",
        "ImagingFrequency": 297.204857,
        "InPlanePhaseEncodingDirection": "ROW",
        "LargestImagePixelValue": 4095,
        "MRAcquisitionType": "2D",
        "MagneticFieldStrength": 6.98,
        "Manufacturer": "SIEMENS",
        "ManufacturerModelName": "Investigational_Device_7T",
        "Modality": "MR",
        "NumberOfAverages": 1.0,
        "NumberOfPhaseEncodingSteps": 94,
        "PercentPhaseFieldOfView": 100.0,
        "PercentSampling": 100.0,
        "PerformedProcedureStepStartTime": "161157.887000",
        "PhotometricInterpretation": "MONOCHROME2",
        "PixelBandwidth": 2003.0,
        "PixelRepresentation": 0,
        "PixelSpacing": [
          2.0,
          2.0
        ],
        "PositionReferenceIndicator": "",
        "ProcedureCodeSequence": [
          {
            "CodeMeaning": "MRI Procedure Limited",
            "CodeValue": "MI01491",
            "CodingSchemeDesignator": "USA Standard",
            "ContextIdentifier": "4000133395"
          }
        ],
        "ProtocolName": "NIH_EPI_2.0iso_TR2_Run02.2",
        "ReferencedStudySequence": [
          {
            "ReferencedSOPClassUID": "1.2.840.10008.3.1.2.3.1",
            "ReferencedSOPInstanceUID": "1.2.840.113564.9.1.2787814059.53.2.5000099245"
          }
        ],
        "RepetitionTime": 2000.0,
        "RequestedProcedureCodeSequence": [
          {
            "CodeMeaning": "MRI Procedure Limited",
            "CodeValue": "MI01491",
            "CodingSchemeDesignator": "USA Standard",
            "ContextIdentifier": "4000133395"
          }
        ],
        "RequestingService": "NIMH Molecular Imaging Branch",
        "Rows": 768,
        "SAR": 0.08121674495792,
        "SamplesPerPixel": 1,
        "ScanningSequence": "EP",
        "SequenceName": "epfid2d1_96",
        "SequenceVariant": "SK",
        "SeriesDescription": "NIH_EPI_2.0iso_TR2_Run02.2",
        "SeriesNumber": 8,
        "SliceLocation": -30.593246459961,
        "SliceThickness": 2.0,
        "SmallestImagePixelValue": 0,
        "SoftwareVersions": "syngo MR B17",
        "SpacingBetweenSlices": 2.0,
        "TransmitCoilName": "32Ch_Head_7T",
        "VariableFlipAngleFlag": "N",
        "WindowCenterWidthExplanation": "Algo1",
        "dBdt": 0.0
      },
      "slices": {}
    },
    "modality": "bold",
    "run_id": 5,
    "session_id": "09",
    "subject_id": "003",
    "task_id": "FullFovAttentionTask",
    "time": {
      "samples": {
        "AcquisitionNumber": [
          1,
          2,
          3,
          4,
          5,
          6,
          7,
          8,
          9,
          10,
          11,
          12,
          13,
          14,
          15,
          16,
          17,
          18,
          19,
          20,
          21,
          22,
          23,
          24,
          25,
          26,
          27,
          28,
          29,
          30,
          31,
          32,
          33,
          34,
          35,
          36,
          37,
          38,
          39,
          40,
          41,
          42,
          43,
          44,
          45,
          46,
          47,
          48,
          49,
          50,
          51,
          52,
          53,
          54,
          55,
          56,
          57,
          58,
          59,
          60,
          61,
          62,
          63,
          64,
          65,
          66,
          67,
          68,
          69,
          70,
          71,
          72,
          73,
          74,
          75,
          76,
          77,
          78,
          79,
          80,
          81,
          82,
          83,
          84,
          85,
          86,
          87,
          88,
          89,
          90,
          91,
          92,
          93,
          94,
          95,
          96,
          97,
          98,
          99,
          100,
          101,
          102,
          103,
          104,
          105,
          106,
          107,
          108,
          109,
          110,
          111,
          112,
          113,
          114,
          115,
          116,
          117,
          118,
          119,
          120,
          121,
          122,
          123,
          124,
          125,
          126,
          127,
          128,
          129,
          130,
          131,
          132,
          133,
          134,
          135,
          136,
          137,
          138,
          139,
          140,
          141,
          142,
          143,
          144,
          145,
          146,
          147,
          148,
          149,
          150,
          151,
          152,
          153,
          154,
          155,
          156,
          157,
          158,
          159,
          160,
          161,
          162,
          163,
          164
        ],
        "AcquisitionTime": [
          "163956.925000",
          "164000.942500",
          "164002.950000",
          "164004.957500",
          "164006.965000",
          "164008.972500",
          "164010.982500",
          "164012.990000",
          "164014.997500",
          "164017.005000",
          "164019.015000",
          "164021.022500",
          "164023.030000",
          "164025.037500",
          "164027.045000",
          "164029.055000",
          "164031.062500",
          "164033.070000",
          "164035.077500",
          "164037.085000",
          "164039.095000",
          "164041.102500",
          "164043.110000",
          "164045.117500",
          "164047.125000",
          "164049.135000",
          "164051.142500",
          "164053.150000",
          "164055.157500",
          "164057.167500",
          "164059.175000",
          "164101.182500",
          "164103.190000",
          "164105.197500",
          "164107.207500",
          "164109.215000",
          "164111.222500",
          "164113.230000",
          "164115.237500",
          "164117.247500",
          "164119.255000",
          "164121.262500",
          "164123.270000",
          "164125.280000",
          "164127.287500",
          "164129.295000",
          "164131.302500",
          "164133.310000",
          "164135.320000",
          "164137.327500",
          "164139.335000",
          "164141.342500",
          "164143.350000",
          "164145.360000",
          "164147.367500",
          "164149.375000",
          "164151.382500",
          "164153.392500",
          "164155.400000",
          "164157.407500",
          "164159.415000",
          "164201.422500",
          "164203.432500",
          "164205.440000",
          "164207.447500",
          "164209.455000",
          "164211.462500",
          "164213.472500",
          "164215.480000",
          "164217.487500",
          "164219.495000",
          "164221.502500",
          "164223.512500",
          "164225.520000",
          "164227.527500",
          "164229.535000",
          "164231.545000",
          "164233.552500",
          "164235.560000",
          "164237.567500",
          "164239.575000",
          "164241.585000",
          "164243.592500",
          "164245.600000",
          "164247.607500",
          "164249.615000",
          "164251.625000",
          "164253.632500",
          "164255.640000",
          "164257.647500",
          "164259.657500",
          "164301.665000",
          "164303.672500",
          "164305.680000",
          "164307.687500",
          "164309.697500",
          "164311.705000",
          "164313.712500",
          "164315.720000",
          "164317.727500",
          "164319.737500",
          "164321.745000",
          "164323.752500",
          "164325.760000",
          "164327.770000",
          "164329.777500",
          "164331.785000",
          "164333.792500",
          "164335.800000",
          "164337.810000",
          "164339.817500",
          "164341.825000",
          "164343.832500",
          "164345.840000",
          "164347.850000",
          "164349.857500",
          "164351.865000",
          "164353.872500",
          "164355.880000",
          "164357.890000",
          "164359.897500",
          "164401.905000",
          "164403.912500",
          "164405.922500",
          "164407.930000",
          "164409.937500",
          "164411.945000",
          "164413.952500",
          "164415.962500",
          "164417.970000",
          "164419.977500",
          "164421.985000",
          "164423.992500",
          "164426.002500",
          "164428.010000",
          "164430.017500",
          "164432.025000",
          "164434.035000",
          "164436.042500",
          "164438.050000",
          "164440.057500",
          "164442.065000",
          "164444.075000",
          "164446.082500",
          "164448.090000",
          "164450.097500",
          "164452.105000",
          "164454.115000",
          "164456.122500",
          "164458.130000",
          "164500.137500",
          "164502.147500",
          "164504.155000",
          "164506.162500",
          "164508.170000",
          "164510.177500",
          "164512.187500",
          "164514.195000",
          "164516.202500",
          "164518.210000",
          "164520.217500",
          "164522.227500",
          "164524.235000",
          "164526.242500"
        ],
        "ContentTime": [
          "164053.496000",
          "164053.496000",
          "164053.496000",
          "164053.496000",
          "164053.512000",
          "164053.512000",
          "164053.512000",
          "164053.512000",
          "164053.512000",
          "164053.512000",
          "164053.512000",
          "164053.527000",
          "164053.527000",
          "164053.527000",
          "164053.527000",
          "164053.527000",
          "164053.527000",
          "164053.527000",
          "164053.543000",
          "164053.543000",
          "164053.543000",
          "164053.543000",
          "164053.543000",
          "164053.543000",
          "164053.558000",
          "164053.558000",
          "164053.558000",
          "164133.480000",
          "164133.480000",
          "164133.480000",
          "164133.480000",
          "164133.496000",
          "164133.496000",
          "164133.496000",
          "164133.496000",
          "164133.496000",
          "164133.496000",
          "164133.496000",
          "164133.512000",
          "164133.512000",
          "164133.512000",
          "164133.527000",
          "164133.527000",
          "164133.527000",
          "164133.527000",
          "164133.527000",
          "164133.527000",
          "164213.480000",
          "164213.480000",
          "164213.480000",
          "164213.480000",
          "164213.496000",
          "164213.496000",
          "164213.496000",
          "164213.496000",
          "164213.496000",
          "164213.496000",
          "164213.512000",
          "164213.512000",
          "164213.512000",
          "164213.512000",
          "164213.527000",
          "164213.527000",
          "164213.527000",
          "164213.527000",
          "164213.527000",
          "164213.543000",
          "164253.480000",
          "164253.480000",
          "164253.480000",
          "164253.480000",
          "164253.496000",
          "164253.496000",
          "164253.496000",
          "164253.496000",
          "164253.496000",
          "164253.512000",
          "164253.512000",
          "164253.512000",
          "164253.512000",
          "164253.512000",
          "164253.527000",
          "164253.527000",
          "164253.527000",
          "164253.527000",
          "164253.527000",
          "164253.527000",
          "164313.480000",
          "164313.480000",
          "164313.480000",
          "164313.480000",
          "164313.480000",
          "164313.496000",
          "164313.496000",
          "164313.496000",
          "164313.496000",
          "164313.496000",
          "164353.480000",
          "164353.480000",
          "164353.480000",
          "164353.480000",
          "164353.496000",
          "164353.496000",
          "164353.496000",
          "164353.496000",
          "164353.496000",
          "164353.496000",
          "164353.496000",
          "164353.512000",
          "164353.512000",
          "164353.512000",
          "164353.512000",
          "164353.512000",
          "164353.512000",
          "164353.527000",
          "164353.527000",
          "164353.527000",
          "164433.480000",
          "164433.480000",
          "164433.480000",
          "164433.480000",
          "164433.496000",
          "164433.496000",
          "164433.496000",
          "164433.496000",
          "164433.496000",
          "164433.512000",
          "164433.512000",
          "164433.512000",
          "164433.512000",
          "164433.512000",
          "164433.512000",
          "164433.512000",
          "164433.527000",
          "164433.527000",
          "164433.527000",
          "164433.527000",
          "164513.480000",
          "164513.480000",
          "164513.480000",
          "164513.480000",
          "164513.480000",
          "164513.496000",
          "164513.496000",
          "164513.496000",
          "164513.496000",
          "164513.496000",
          "164513.496000",
          "164513.496000",
          "164513.512000",
          "164513.512000",
          "164513.512000",
          "164513.512000",
          "164513.512000",
          "164513.512000",
          "164513.527000",
          "164513.527000",
          "164526.762000",
          "164526.777000",
          "164526.777000",
          "164526.777000",
          "164526.777000",
          "164526.777000",
          "164526.793000"
        ],
        "InstanceCreationTime": [
          "164053.496000",
          "164053.496000",
          "164053.496000",
          "164053.496000",
          "164053.512000",
          "164053.512000",
          "164053.512000",
          "164053.512000",
          "164053.512000",
          "164053.512000",
          "164053.512000",
          "164053.527000",
          "164053.527000",
          "164053.527000",
          "164053.527000",
          "164053.527000",
          "164053.527000",
          "164053.527000",
          "164053.543000",
          "164053.543000",
          "164053.543000",
          "164053.543000",
          "164053.543000",
          "164053.543000",
          "164053.558000",
          "164053.558000",
          "164053.558000",
          "164133.480000",
          "164133.480000",
          "164133.480000",
          "164133.480000",
          "164133.496000",
          "164133.496000",
          "164133.496000",
          "164133.496000",
          "164133.496000",
          "164133.496000",
          "164133.496000",
          "164133.512000",
          "164133.512000",
          "164133.512000",
          "164133.527000",
          "164133.527000",
          "164133.527000",
          "164133.527000",
          "164133.527000",
          "164133.527000",
          "164213.480000",
          "164213.480000",
          "164213.480000",
          "164213.480000",
          "164213.496000",
          "164213.496000",
          "164213.496000",
          "164213.496000",
          "164213.496000",
          "164213.496000",
          "164213.512000",
          "164213.512000",
          "164213.512000",
          "164213.512000",
          "164213.527000",
          "164213.527000",
          "164213.527000",
          "164213.527000",
          "164213.527000",
          "164213.543000",
          "164253.480000",
          "164253.480000",
          "164253.480000",
          "164253.480000",
          "164253.496000",
          "164253.496000",
          "164253.496000",
          "164253.496000",
          "164253.496000",
          "164253.512000",
          "164253.512000",
          "164253.512000",
          "164253.512000",
          "164253.512000",
          "164253.527000",
          "164253.527000",
          "164253.527000",
          "164253.527000",
          "164253.527000",
          "164253.527000",
          "164313.480000",
          "164313.480000",
          "164313.480000",
          "164313.480000",
          "164313.480000",
          "164313.496000",
          "164313.496000",
          "164313.496000",
          "164313.496000",
          "164313.496000",
          "164353.480000",
          "164353.480000",
          "164353.480000",
          "164353.480000",
          "164353.496000",
          "164353.496000",
          "164353.496000",
          "164353.496000",
          "164353.496000",
          "164353.496000",
          "164353.496000",
          "164353.512000",
          "164353.512000",
          "164353.512000",
          "164353.512000",
          "164353.512000",
          "164353.512000",
          "164353.527000",
          "164353.527000",
          "164353.527000",
          "164433.480000",
          "164433.480000",
          "164433.480000",
          "164433.480000",
          "164433.496000",
          "164433.496000",
          "164433.496000",
          "164433.496000",
          "164433.496000",
          "164433.512000",
          "164433.512000",
          "164433.512000",
          "164433.512000",
          "164433.512000",
          "164433.512000",
          "164433.512000",
          "164433.527000",
          "164433.527000",
          "164433.527000",
          "164433.527000",
          "164513.480000",
          "164513.480000",
          "164513.480000",
          "164513.480000",
          "164513.480000",
          "164513.496000",
          "164513.496000",
          "164513.496000",
          "164513.496000",
          "164513.496000",
          "164513.496000",
          "164513.496000",
          "164513.512000",
          "164513.512000",
          "164513.512000",
          "164513.512000",
          "164513.512000",
          "164513.512000",
          "164513.527000",
          "164513.527000",
          "164526.762000",
          "164526.777000",
          "164526.777000",
          "164526.777000",
          "164526.777000",
          "164526.777000",
          "164526.793000"
        ],
        "InstanceNumber": [
          1,
          2,
          3,
          4,
          5,
          6,
          7,
          8,
          9,
          10,
          11,
          12,
          13,
          14,
          15,
          16,
          17,
          18,
          19,
          20,
          21,
          22,
          23,
          24,
          25,
          26,
          27,
          28,
          29,
          30,
          31,
          32,
          33,
          34,
          35,
          36,
          37,
          38,
          39,
          40,
          41,
          42,
          43,
          44,
          45,
          46,
          47,
          48,
          49,
          50,
          51,
          52,
          53,
          54,
          55,
          56,
          57,
          58,
          59,
          60,
          61,
          62,
          63,
          64,
          65,
          66,
          67,
          68,
          69,
          70,
          71,
          72,
          73,
          74,
          75,
          76,
          77,
          78,
          79,
          80,
          81,
          82,
          83,
          84,
          85,
          86,
          87,
          88,
          89,
          90,
          91,
          92,
          93,
          94,
          95,
          96,
          97,
          98,
          99,
          100,
          101,
          102,
          103,
          104,
          105,
          106,
          107,
          108,
          109,
          110,
          111,
          112,
          113,
          114,
          115,
          116,
          117,
          118,
          119,
          120,
          121,
          122,
          123,
          124,
          125,
          126,
          127,
          128,
          129,
          130,
          131,
          132,
          133,
          134,
          135,
          136,
          137,
          138,
          139,
          140,
          141,
          142,
          143,
          144,
          145,
          146,
          147,
          148,
          149,
          150,
          151,
          152,
          153,
          154,
          155,
          156,
          157,
          158,
          159,
          160,
          161,
          162,
          163,
          164
        ],
        "WindowCenter": [
          986.0,
          984.0,
          984.0,
          985.0,
          984.0,
          984.0,
          984.0,
          985.0,
          985.0,
          985.0,
          985.0,
          985.0,
          984.0,
          985.0,
          985.0,
          984.0,
          985.0,
          985.0,
          986.0,
          985.0,
          985.0,
          985.0,
          984.0,
          984.0,
          985.0,
          985.0,
          985.0,
          984.0,
          984.0,
          984.0,
          984.0,
          984.0,
          984.0,
          984.0,
          984.0,
          983.0,
          983.0,
          983.0,
          983.0,
          984.0,
          983.0,
          983.0,
          983.0,
          983.0,
          983.0,
          984.0,
          984.0,
          985.0,
          984.0,
          983.0,
          984.0,
          983.0,
          984.0,
          984.0,
          984.0,
          984.0,
          983.0,
          983.0,
          982.0,
          983.0,
          984.0,
          983.0,
          984.0,
          984.0,
          984.0,
          983.0,
          983.0,
          983.0,
          983.0,
          983.0,
          984.0,
          983.0,
          983.0,
          983.0,
          983.0,
          984.0,
          984.0,
          984.0,
          984.0,
          984.0,
          984.0,
          984.0,
          983.0,
          984.0,
          984.0,
          983.0,
          983.0,
          984.0,
          984.0,
          984.0,
          983.0,
          983.0,
          985.0,
          985.0,
          984.0,
          984.0,
          984.0,
          984.0,
          984.0,
          984.0,
          983.0,
          983.0,
          983.0,
          982.0,
          982.0,
          984.0,
          985.0,
          983.0,
          983.0,
          984.0,
          984.0,
          983.0,
          983.0,
          984.0,
          984.0,
          983.0,
          983.0,
          983.0,
          983.0,
          982.0,
          983.0,
          983.0,
          983.0,
          983.0,
          984.0,
          985.0,
          984.0,
          983.0,
          983.0,
          983.0,
          983.0,
          984.0,
          986.0,
          985.0,
          986.0,
          985.0,
          984.0,
          985.0,
          984.0,
          985.0,
          984.0,
          983.0,
          983.0,
          984.0,
          983.0,
          983.0,
          985.0,
          983.0,
          983.0,
          983.0,
          984.0,
          984.0,
          984.0,
          984.0,
          984.0,
          984.0,
          984.0,
          983.0,
          983.0,
          984.0,
          985.0,
          985.0,
          984.0,
          983.0
        ],
        "WindowWidth": [
          2625.0,
          2626.0,
          2625.0,
          2621.0,
          2621.0,
          2623.0,
          2625.0,
          2629.0,
          2632.0,
          2628.0,
          2624.0,
          2626.0,
          2631.0,
          2631.0,
          2626.0,
          2624.0,
          2625.0,
          2626.0,
          2623.0,
          2622.0,
          2620.0,
          2620.0,
          2620.0,
          2620.0,
          2623.0,
          2624.0,
          2624.0,
          2623.0,
          2620.0,
          2619.0,
          2618.0,
          2618.0,
          2620.0,
          2622.0,
          2621.0,
          2619.0,
          2620.0,
          2622.0,
          2625.0,
          2624.0,
          2621.0,
          2621.0,
          2621.0,
          2619.0,
          2616.0,
          2618.0,
          2625.0,
          2627.0,
          2621.0,
          2615.0,
          2618.0,
          2620.0,
          2619.0,
          2618.0,
          2619.0,
          2617.0,
          2613.0,
          2610.0,
          2613.0,
          2619.0,
          2621.0,
          2619.0,
          2618.0,
          2619.0,
          2618.0,
          2618.0,
          2618.0,
          2618.0,
          2618.0,
          2618.0,
          2619.0,
          2621.0,
          2619.0,
          2621.0,
          2623.0,
          2622.0,
          2621.0,
          2619.0,
          2618.0,
          2617.0,
          2617.0,
          2618.0,
          2616.0,
          2614.0,
          2613.0,
          2612.0,
          2613.0,
          2614.0,
          2614.0,
          2611.0,
          2611.0,
          2616.0,
          2624.0,
          2622.0,
          2618.0,
          2615.0,
          2615.0,
          2616.0,
          2621.0,
          2623.0,
          2619.0,
