{
  "aor": 0.002102560975609756,
  "aqi": 0.0065963479878048785,
  "bids_meta": {
    "AcquisitionMatrixPE": 96,
    "AcquisitionNumber": 1,
    "AcquisitionTime": "17:27:52.942500",
    "BandwidthPerPixelPhaseEncode": 52.083,
    "BaseResolution": 96,
    "BodyPartExamined": "HEAD",
    "ConversionSoftware": "dcm2niix",
    "ConversionSoftwareVersion": "v1.0.20180622 GCC6.3.0",
    "DerivedVendorReportedEchoSpacing": 0.000600004,
    "DeviceSerialNumber": "18926",
    "DwellTime": 2.6e-06,
    "EchoTime": 0.025,
    "EffectiveEchoSpacing": 0.000200001,
    "FlipAngle": 50,
    "ImageOrientationPatientDICOM": [
      1,
      -2.05103e-10,
      0,
      2.05103e-10,
      1,
      0
    ],
    "ImageType": [
      "ORIGINAL",
      "PRIMARY",
      "M",
      "ND",
      "ECHO",
      "00",
      "MOSAIC"
    ],
    "InPlanePhaseEncodingDirectionDICOM": "ROW",
    "InstitutionName": "NIMH",
    "InstitutionalDepartmentName": "Department",
    "MRAcquisitionType": "2D",
    "MagneticFieldStrength": 6.98,
    "Manufacturer": "Siemens",
    "ManufacturersModelName": "Investigational_Device_7T",
    "Modality": "MR",
    "ParallelReductionFactorInPlane": 3,
    "PartialFourier": 1,
    "PatientPosition": "HFS",
    "PercentPhaseFOV": 100,
    "PhaseEncodingDirection": "i",
    "PhaseEncodingSteps": 94,
    "PhaseResolution": 1,
    "PixelBandwidth": 2003,
    "ProcedureStepDescription": "MRI_Procedure_Limited",
    "ProtocolName": "NIH_EPI_2.0iso_TR2_Run10",
    "PulseSequenceDetails": "%CustomerSeq%_inati_nih_epi",
    "ReceiveCoilName": "32Ch_Head_7T",
    "ReconMatrixPE": 96,
    "RepetitionTime": 2,
    "SAR": 0.0903172,
    "ScanningSequence": "EP",
    "SequenceName": "epfid2d1_96",
    "SequenceVariant": "SK",
    "SeriesDescription": "NIH_EPI_2.0iso_TR2_Run10",
    "SeriesNumber": 13,
    "ShimSetting": [
      -43,
      16,
      1336,
      2750,
      22,
      37,
      258,
      -281
    ],
    "SliceThickness": 2,
    "SliceTiming": [
      1.0025,
      0,
      1.04,
      0.0375,
      1.0775,
      0.075,
      1.115,
      0.1125,
      1.1525,
      0.1475,
      1.19,
      0.185,
      1.2275,
      0.2225,
      1.265,
      0.26,
      1.3,
      0.2975,
      1.3375,
      0.335,
      1.375,
      0.3725,
      1.4125,
      0.4075,
      1.45,
      0.445,
      1.4875,
      0.4825,
      1.525,
      0.52,
      1.56,
      0.5575,
      1.5975,
      0.595,
      1.635,
      0.6325,
      1.6725,
      0.67,
      1.71,
      0.705,
      1.7475,
      0.7425,
      1.785,
      0.78,
      1.8225,
      0.8175,
      1.8575,
      0.855,
      1.895,
      0.8925,
      1.9325,
      0.93,
      1.97,
      0.9675
    ],
    "SoftwareVersions": "syngo_MR_B17",
    "SpacingBetweenSlices": 2,
    "StationName": "FMRIFD7T",
    "TaskName": "FullFovAttentionTask",
    "TotalReadoutTime": 0.0190001,
    "TxRefAmp": 281,
    "dataset": "ds001555",
    "dcmmeta_affine": [
      [
        -2.0,
        4.1020681296188855e-10,
        0.0,
        95.98538208007812
      ],
      [
        4.1020681296188855e-10,
        2.0,
        0.0,
        -75.12183380126953
      ],
      [
        0.0,
        0.0,
        2.0,
        -31.942644119262695
      ],
      [
        0.0,
        0.0,
        0.0,
        1.0
      ]
    ],
    "dcmmeta_reorient_transform": [
      [
        0.0,
        -1.0,
        0.0,
        95.0
      ],
      [
        1.0,
        0.0,
        0.0,
        0.0
      ],
      [
        0.0,
        0.0,
        1.0,
        0.0
      ],
      [
        0.0,
        0.0,
        0.0,
        1.0
      ]
    ],
    "dcmmeta_shape": [
      96,
      96,
      54,
      164
    ],
    "dcmmeta_slice_dim": 2,
    "dcmmeta_version": 0.6,
    "global": {
      "const": {
        "AcquisitionMatrix": [
          0,
          96,
          96,
          0
        ],
        "Allergies": "No Known Allergies",
        "AngioFlag": "N",
        "BitsAllocated": 16,
        "BitsStored": 12,
        "BodyPartExamined": "HEAD",
        "Columns": 768,
        "EchoNumbers": 1,
        "EchoTime": 25.0,
        "EchoTrainLength": 1,
        "FlipAngle": 50.0,
        "HighBit": 11,
        "ImageOrientationPatient": [
          1.0,
          -2.051034e-10,
          0.0,
          2.051034e-10,
          1.0,
          0.0
        ],
        "ImagePositionPatient": [
          -767.98537955166,
          -786.87816794856,
          -31.942644119263
        ],
        "ImageType": [
          "ORIGINAL",
          "PRIMARY",
          "M",
          "ND",
          "ECHO_00",
          "MOSAIC"
        ],
        "ImagedNucleus": "1H",
        "ImagingFrequency": 297.204992,
        "InPlanePhaseEncodingDirection": "ROW",
        "LargestImagePixelValue": 4095,
        "MRAcquisitionType": "2D",
        "MagneticFieldStrength": 6.98,
        "Manufacturer": "SIEMENS",
        "ManufacturerModelName": "Investigational_Device_7T",
        "Modality": "MR",
        "NumberOfAverages": 1.0,
        "NumberOfPhaseEncodingSteps": 94,
        "PercentPhaseFieldOfView": 100.0,
        "PercentSampling": 100.0,
        "PerformedProcedureStepStartTime": "160834.390000",
        "PhotometricInterpretation": "MONOCHROME2",
        "PixelBandwidth": 2003.0,
        "PixelRepresentation": 0,
        "PixelSpacing": [
          2.0,
          2.0
        ],
        "PositionReferenceIndicator": "",
        "ProcedureCodeSequence": [
          {
            "CodeMeaning": "MRI Procedure Limited",
            "CodeValue": "MI01491",
            "CodingSchemeDesignator": "USA Standard",
            "ContextIdentifier": "4000135229"
          }
        ],
        "ProtocolName": "NIH_EPI_2.0iso_TR2_Run10",
        "ReferencedStudySequence": [
          {
            "ReferencedSOPClassUID": "1.2.840.10008.3.1.2.3.1",
            "ReferencedSOPInstanceUID": "1.2.840.113564.9.1.2787814059.53.2.5000101085"
          }
        ],
        "RepetitionTime": 2000.0,
        "RequestedProcedureCodeSequence": [
          {
            "CodeMeaning": "MRI Procedure Limited",
            "CodeValue": "MI01491",
            "CodingSchemeDesignator": "USA Standard",
            "ContextIdentifier": "4000135229"
          }
        ],
        "RequestingService": "NIMH Molecular Imaging Branch",
        "Rows": 768,
        "SAR": 0.09031717725915,
        "SamplesPerPixel": 1,
        "ScanningSequence": "EP",
        "SequenceName": "epfid2d1_96",
        "SequenceVariant": "SK",
        "SeriesDescription": "NIH_EPI_2.0iso_TR2_Run10",
        "SeriesNumber": 13,
        "SliceLocation": -31.942644119263,
        "SliceThickness": 2.0,
        "SmallestImagePixelValue": 0,
        "SoftwareVersions": "syngo MR B17",
        "SpacingBetweenSlices": 2.0000000359877,
        "TransmitCoilName": "32Ch_Head_7T",
        "VariableFlipAngleFlag": "N",
        "WindowCenterWidthExplanation": "Algo1",
        "dBdt": 0.0
      },
      "slices": {}
    },
    "modality": "bold",
    "run_id": 10,
    "session_id": "10",
    "subject_id": "003",
    "task_id": "FullFovAttentionTask",
    "time": {
      "samples": {
        "AcquisitionNumber": [
          1,
          2,
          3,
          4,
          5,
          6,
          7,
          8,
          9,
          10,
          11,
          12,
          13,
          14,
          15,
          16,
          17,
          18,
          19,
          20,
          21,
          22,
          23,
          24,
          25,
          26,
          27,
          28,
          29,
          30,
          31,
          32,
          33,
          34,
          35,
          36,
          37,
          38,
          39,
          40,
          41,
          42,
          43,
          44,
          45,
          46,
          47,
          48,
          49,
          50,
          51,
          52,
          53,
          54,
          55,
          56,
          57,
          58,
          59,
          60,
          61,
          62,
          63,
          64,
          65,
          66,
          67,
          68,
          69,
          70,
          71,
          72,
          73,
          74,
          75,
          76,
          77,
          78,
          79,
          80,
          81,
          82,
          83,
          84,
          85,
          86,
          87,
          88,
          89,
          90,
          91,
          92,
          93,
          94,
          95,
          96,
          97,
          98,
          99,
          100,
          101,
          102,
          103,
          104,
          105,
          106,
          107,
          108,
          109,
          110,
          111,
          112,
          113,
          114,
          115,
          116,
          117,
          118,
          119,
          120,
          121,
          122,
          123,
          124,
          125,
          126,
          127,
          128,
          129,
          130,
          131,
          132,
          133,
          134,
          135,
          136,
          137,
          138,
          139,
          140,
          141,
          142,
          143,
          144,
          145,
          146,
          147,
          148,
          149,
          150,
          151,
          152,
          153,
          154,
          155,
          156,
          157,
          158,
          159,
          160,
          161,
          162,
          163,
          164
        ],
        "AcquisitionTime": [
          "172752.942500",
          "172756.960000",
          "172758.967500",
          "172800.975000",
          "172802.982500",
          "172804.992500",
          "172807.000000",
          "172809.007500",
          "172811.015000",
          "172813.025000",
          "172815.032500",
          "172817.040000",
          "172819.047500",
          "172821.055000",
          "172823.065000",
          "172825.072500",
          "172827.080000",
          "172829.087500",
          "172831.095000",
          "172833.105000",
          "172835.112500",
          "172837.120000",
          "172839.127500",
          "172841.137500",
          "172843.145000",
          "172845.152500",
          "172847.160000",
          "172849.167500",
          "172851.177500",
          "172853.185000",
          "172855.192500",
          "172857.200000",
          "172859.207500",
          "172901.217500",
          "172903.225000",
          "172905.232500",
          "172907.240000",
          "172909.250000",
          "172911.257500",
          "172913.265000",
          "172915.272500",
          "172917.280000",
          "172919.290000",
          "172921.297500",
          "172923.305000",
          "172925.312500",
          "172927.320000",
          "172929.330000",
          "172931.337500",
          "172933.345000",
          "172935.352500",
          "172937.360000",
          "172939.370000",
          "172941.377500",
          "172943.385000",
          "172945.392500",
          "172947.402500",
          "172949.410000",
          "172951.417500",
          "172953.425000",
          "172955.432500",
          "172957.442500",
          "172959.450000",
          "173001.457500",
          "173003.465000",
          "173005.472500",
          "173007.482500",
          "173009.490000",
          "173011.497500",
          "173013.505000",
          "173015.515000",
          "173017.522500",
          "173019.530000",
          "173021.537500",
          "173023.545000",
          "173025.555000",
          "173027.562500",
          "173029.570000",
          "173031.577500",
          "173033.585000",
          "173035.595000",
          "173037.602500",
          "173039.610000",
          "173041.617500",
          "173043.627500",
          "173045.635000",
          "173047.642500",
          "173049.650000",
          "173051.657500",
          "173053.667500",
          "173055.675000",
          "173057.682500",
          "173059.690000",
          "173101.697500",
          "173103.707500",
          "173105.715000",
          "173107.722500",
          "173109.730000",
          "173111.737500",
          "173113.747500",
          "173115.755000",
          "173117.762500",
          "173119.770000",
          "173121.780000",
          "173123.787500",
          "173125.795000",
          "173127.802500",
          "173129.810000",
          "173131.820000",
          "173133.827500",
          "173135.835000",
          "173137.842500",
          "173139.850000",
          "173141.860000",
          "173143.867500",
          "173145.875000",
          "173147.882500",
          "173149.892500",
          "173151.900000",
          "173153.907500",
          "173155.915000",
          "173157.922500",
          "173159.932500",
          "173201.940000",
          "173203.947500",
          "173205.955000",
          "173207.962500",
          "173209.972500",
          "173211.980000",
          "173213.987500",
          "173215.995000",
          "173218.005000",
          "173220.012500",
          "173222.020000",
          "173224.027500",
          "173226.035000",
          "173228.045000",
          "173230.052500",
          "173232.060000",
          "173234.067500",
          "173236.075000",
          "173238.085000",
          "173240.092500",
          "173242.100000",
          "173244.107500",
          "173246.115000",
          "173248.125000",
          "173250.132500",
          "173252.140000",
          "173254.147500",
          "173256.157500",
          "173258.165000",
          "173300.172500",
          "173302.180000",
          "173304.187500",
          "173306.197500",
          "173308.205000",
          "173310.212500",
          "173312.220000",
          "173314.227500",
          "173316.237500",
          "173318.245000",
          "173320.252500",
          "173322.260000"
        ],
        "ContentTime": [
          "172810.828000",
          "172810.843000",
          "172810.843000",
          "172810.843000",
          "172810.843000",
          "172810.843000",
          "172810.859000",
          "172850.828000",
          "172850.828000",
          "172850.828000",
          "172850.828000",
          "172850.843000",
          "172850.843000",
          "172850.843000",
          "172850.843000",
          "172850.843000",
          "172850.843000",
          "172850.843000",
          "172850.859000",
          "172850.859000",
          "172850.859000",
          "172850.859000",
          "172850.875000",
          "172850.875000",
          "172850.875000",
          "172850.875000",
          "172850.875000",
          "172930.828000",
          "172930.828000",
          "172930.828000",
          "172930.828000",
          "172930.828000",
          "172930.843000",
          "172930.843000",
          "172930.843000",
          "172930.843000",
          "172930.843000",
          "172930.843000",
          "172930.843000",
          "172930.859000",
          "172930.859000",
          "172930.859000",
          "172930.859000",
          "172930.859000",
          "172930.859000",
          "172930.859000",
          "172930.875000",
          "173010.828000",
          "173010.828000",
          "173010.828000",
          "173010.828000",
          "173010.828000",
          "173010.843000",
          "173010.843000",
          "173010.843000",
          "173010.843000",
          "173010.843000",
          "173010.843000",
          "173010.859000",
          "173010.859000",
          "173010.859000",
          "173010.859000",
          "173010.859000",
          "173010.875000",
          "173010.875000",
          "173010.875000",
          "173010.875000",
          "173050.828000",
          "173050.828000",
          "173050.828000",
          "173050.828000",
          "173050.828000",
          "173050.843000",
          "173050.843000",
          "173050.843000",
          "173050.843000",
          "173050.843000",
          "173050.843000",
          "173050.843000",
          "173050.859000",
          "173050.859000",
          "173050.859000",
          "173050.859000",
          "173050.859000",
          "173050.875000",
          "173050.875000",
          "173050.875000",
          "173130.828000",
          "173130.828000",
          "173130.828000",
          "173130.828000",
          "173130.828000",
          "173130.843000",
          "173130.843000",
          "173130.843000",
          "173130.843000",
          "173130.843000",
          "173130.859000",
          "173130.859000",
          "173130.859000",
          "173130.875000",
          "173130.875000",
          "173130.875000",
          "173130.875000",
          "173130.875000",
          "173130.890000",
          "173130.890000",
          "173210.828000",
          "173210.828000",
          "173210.828000",
          "173210.828000",
          "173210.828000",
          "173210.843000",
          "173210.843000",
          "173210.843000",
          "173210.843000",
          "173210.843000",
          "173210.843000",
          "173210.843000",
          "173210.859000",
          "173210.859000",
          "173210.859000",
          "173210.859000",
          "173210.859000",
          "173210.859000",
          "173210.859000",
          "173210.875000",
          "173250.828000",
          "173250.828000",
          "173250.828000",
          "173250.828000",
          "173250.843000",
          "173250.843000",
          "173250.843000",
          "173250.843000",
          "173250.843000",
          "173250.859000",
          "173250.859000",
          "173250.859000",
          "173250.859000",
          "173250.859000",
          "173250.859000",
          "173250.859000",
          "173250.875000",
          "173250.875000",
          "173250.875000",
          "173250.875000",
          "173323.359000",
          "173323.359000",
          "173323.359000",
          "173323.375000",
          "173323.375000",
          "173323.375000",
          "173323.375000",
          "173323.375000",
          "173323.375000",
          "173323.375000",
          "173323.390000",
          "173323.390000",
          "173323.390000",
          "173323.390000",
          "173323.390000",
          "173323.390000",
          "173323.390000"
        ],
        "InstanceCreationTime": [
          "172810.828000",
          "172810.843000",
          "172810.843000",
          "172810.843000",
          "172810.843000",
          "172810.843000",
          "172810.859000",
          "172850.828000",
          "172850.828000",
          "172850.828000",
          "172850.828000",
          "172850.843000",
          "172850.843000",
          "172850.843000",
          "172850.843000",
          "172850.843000",
          "172850.843000",
          "172850.843000",
          "172850.859000",
          "172850.859000",
          "172850.859000",
          "172850.859000",
          "172850.875000",
          "172850.875000",
          "172850.875000",
          "172850.875000",
          "172850.875000",
          "172930.828000",
          "172930.828000",
          "172930.828000",
          "172930.828000",
          "172930.828000",
          "172930.843000",
          "172930.843000",
          "172930.843000",
          "172930.843000",
          "172930.843000",
          "172930.843000",
          "172930.843000",
          "172930.859000",
          "172930.859000",
          "172930.859000",
          "172930.859000",
          "172930.859000",
          "172930.859000",
          "172930.859000",
          "172930.875000",
          "173010.828000",
          "173010.828000",
          "173010.828000",
          "173010.828000",
          "173010.828000",
          "173010.843000",
          "173010.843000",
          "173010.843000",
          "173010.843000",
          "173010.843000",
          "173010.843000",
          "173010.859000",
          "173010.859000",
          "173010.859000",
          "173010.859000",
          "173010.859000",
          "173010.875000",
          "173010.875000",
          "173010.875000",
          "173010.875000",
          "173050.828000",
          "173050.828000",
          "173050.828000",
          "173050.828000",
          "173050.828000",
          "173050.843000",
          "173050.843000",
          "173050.843000",
          "173050.843000",
          "173050.843000",
          "173050.843000",
          "173050.843000",
          "173050.859000",
          "173050.859000",
          "173050.859000",
          "173050.859000",
          "173050.859000",
          "173050.875000",
          "173050.875000",
          "173050.875000",
          "173130.828000",
          "173130.828000",
          "173130.828000",
          "173130.828000",
          "173130.828000",
          "173130.843000",
          "173130.843000",
          "173130.843000",
          "173130.843000",
          "173130.843000",
          "173130.859000",
          "173130.859000",
          "173130.859000",
          "173130.875000",
          "173130.875000",
          "173130.875000",
          "173130.875000",
          "173130.875000",
          "173130.890000",
          "173130.890000",
          "173210.828000",
          "173210.828000",
          "173210.828000",
          "173210.828000",
          "173210.828000",
          "173210.843000",
          "173210.843000",
          "173210.843000",
          "173210.843000",
          "173210.843000",
          "173210.843000",
          "173210.843000",
          "173210.859000",
          "173210.859000",
          "173210.859000",
          "173210.859000",
          "173210.859000",
          "173210.859000",
          "173210.859000",
          "173210.875000",
          "173250.828000",
          "173250.828000",
          "173250.828000",
          "173250.828000",
          "173250.843000",
          "173250.843000",
          "173250.843000",
          "173250.843000",
          "173250.843000",
          "173250.859000",
          "173250.859000",
          "173250.859000",
          "173250.859000",
          "173250.859000",
          "173250.859000",
          "173250.859000",
          "173250.875000",
          "173250.875000",
          "173250.875000",
          "173250.875000",
          "173323.359000",
          "173323.359000",
          "173323.359000",
          "173323.375000",
          "173323.375000",
          "173323.375000",
          "173323.375000",
          "173323.375000",
          "173323.375000",
          "173323.375000",
          "173323.390000",
          "173323.390000",
          "173323.390000",
          "173323.390000",
          "173323.390000",
          "173323.390000",
          "173323.390000"
        ],
        "InstanceNumber": [
          1,
          2,
          3,
          4,
          5,
          6,
          7,
          8,
          9,
          10,
          11,
          12,
          13,
          14,
          15,
          16,
          17,
          18,
          19,
          20,
          21,
          22,
          23,
          24,
          25,
          26,
          27,
          28,
          29,
          30,
          31,
          32,
          33,
          34,
          35,
          36,
          37,
          38,
          39,
          40,
          41,
          42,
          43,
          44,
          45,
          46,
          47,
          48,
          49,
          50,
          51,
          52,
          53,
          54,
          55,
          56,
          57,
          58,
          59,
          60,
          61,
          62,
          63,
          64,
          65,
          66,
          67,
          68,
          69,
          70,
          71,
          72,
          73,
          74,
          75,
          76,
          77,
          78,
          79,
          80,
          81,
          82,
          83,
          84,
          85,
          86,
          87,
          88,
          89,
          90,
          91,
          92,
          93,
          94,
          95,
          96,
          97,
          98,
          99,
          100,
          101,
          102,
          103,
          104,
          105,
          106,
          107,
          108,
          109,
          110,
          111,
          112,
          113,
          114,
          115,
          116,
          117,
          118,
          119,
          120,
          121,
          122,
          123,
          124,
          125,
          126,
          127,
          128,
          129,
          130,
          131,
          132,
          133,
          134,
          135,
          136,
          137,
          138,
          139,
          140,
          141,
          142,
          143,
          144,
          145,
          146,
          147,
          148,
          149,
          150,
          151,
          152,
          153,
          154,
          155,
          156,
          157,
          158,
          159,
          160,
          161,
          162,
          163,
          164
        ],
        "WindowCenter": [
          982.0,
          983.0,
          984.0,
          984.0,
          984.0,
          983.0,
          983.0,
          983.0,
          984.0,
          984.0,
          983.0,
          983.0,
          984.0,
          984.0,
          984.0,
          985.0,
          986.0,
          988.0,
          987.0,
          987.0,
          988.0,
          986.0,
          985.0,
          984.0,
          983.0,
          983.0,
          983.0,
          981.0,
          983.0,
          983.0,
          982.0,
          982.0,
          981.0,
          982.0,
          983.0,
          983.0,
          984.0,
          984.0,
          984.0,
          984.0,
          984.0,
          983.0,
          983.0,
          984.0,
          986.0,
          986.0,
          983.0,
          983.0,
          983.0,
          983.0,
          984.0,
          984.0,
          984.0,
          984.0,
          984.0,
          985.0,
          986.0,
          984.0,
          984.0,
          984.0,
          985.0,
          986.0,
          986.0,
          985.0,
          983.0,
          983.0,
          983.0,
          984.0,
          984.0,
          984.0,
          983.0,
          983.0,
          983.0,
          983.0,
          984.0,
          984.0,
          983.0,
          983.0,
          984.0,
          984.0,
          983.0,
          983.0,
          983.0,
          983.0,
          984.0,
          983.0,
          984.0,
          985.0,
          984.0,
          985.0,
          985.0,
          985.0,
          986.0,
          986.0,
          985.0,
          982.0,
          982.0,
          982.0,
          982.0,
          982.0,
          982.0,
          982.0,
          982.0,
          982.0,
          982.0,
          982.0,
          984.0,
          985.0,
          987.0,
          987.0,
          988.0,
          987.0,
          988.0,
          987.0,
          986.0,
          983.0,
          983.0,
          982.0,
          982.0,
          983.0,
          984.0,
          983.0,
          983.0,
          981.0,
          981.0,
          982.0,
          982.0,
          982.0,
          982.0,
          982.0,
          982.0,
          983.0,
          982.0,
          983.0,
          982.0,
          981.0,
          981.0,
          982.0,
          984.0,
          983.0,
          983.0,
          983.0,
          983.0,
          983.0,
          984.0,
          984.0,
          985.0,
          986.0,
          985.0,
          984.0,
          984.0,
          985.0,
          986.0,
          986.0,
          984.0,
          984.0,
          984.0,
          985.0,
          986.0,
          987.0,
          985.0,
          983.0,
          982.0,
          982.0
        ],
        "WindowWidth": [
          2587.0,
          2592.0,
          2597.0,
          2599.0,
          2597.0,
          2598.0,
          2601.0,
          2604.0,
          2607.0,
          2604.0,
          2601.0,
          2605.0,
          2605.0,
          2605.0,
          2606.0,
          2613.0,
          2619.0,
          2620.0,
          2619.0,
          2622.0,
          2621.0,
          2612.0,
          2603.0,
          2597.0,
          2593.0,
          2594.0,
          2589.0,
          2591.0,
          2589.0,
          2592.0,
          2588.0,
          2587.0,
          2587.0,
          2592.0,
          2593.0,
          2590.0,
          2591.0,
          2600.0,
          2605.0,
          2600.0,
          2598.0,
          2598.0,
          2599.0,
          2610.0,
          2615.0,
          2609.0,
          2601.0,
          2591.0,
          2590.0,
          2595.0,
          2600.0,
          2599.0,
          2597.0,
          2596.0,
          2596.0,
          2600.0,
          2600.0,
          2597.0,
          2600.0,
          2604.0,
          2612.0,
          2618.0,
          2614.0,
          2602.0,
          2593.0,
          2590.0,
          2596.0,
          2601.0,
          2603.0,
          2603.0,
          2602.0,
          2601.0,
          2603.0,
          2603.0,
          2600.0,
          2597.0,
          2599.0,
          2600.0,
          2601.0,
          2598.0,
          2597.0,
          2596.0,
          2598.0,
          2597.0,
          2596.0,
          2598.0,
          2603.0,
          2608.0,
          2611.0,
          2610.0,
          2605.0,
          2606.0,
          2613.0,
          2612.0,
          2606.0,
          2598.0,
          2595.0,
          2597.0,
          2597.0,
          2596.0,
