{
  "aor": 0.001330060975609756,
  "aqi": 0.00718276981707317,
  "bids_meta": {
    "AcquisitionMatrixPE": 96,
    "AcquisitionNumber": 1,
    "AcquisitionTime": "16:20:17.550000",
    "BandwidthPerPixelPhaseEncode": 52.083,
    "BaseResolution": 96,
    "BodyPartExamined": "HEAD",
    "ConversionSoftware": "dcm2niix",
    "ConversionSoftwareVersion": "v1.0.20180622 GCC6.3.0",
    "DerivedVendorReportedEchoSpacing": 0.000600004,
    "DeviceSerialNumber": "18926",
    "DwellTime": 2.6e-06,
    "EchoTime": 0.025,
    "EffectiveEchoSpacing": 0.000200001,
    "FlipAngle": 50,
    "ImageOrientationPatientDICOM": [
      1,
      -2.05103e-10,
      0,
      2.05103e-10,
      1,
      0
    ],
    "ImageType": [
      "ORIGINAL",
      "PRIMARY",
      "M",
      "ND",
      "ECHO",
      "00",
      "MOSAIC"
    ],
    "InPlanePhaseEncodingDirectionDICOM": "ROW",
    "InstitutionName": "NIMH",
    "InstitutionalDepartmentName": "Department",
    "MRAcquisitionType": "2D",
    "MagneticFieldStrength": 6.98,
    "Manufacturer": "Siemens",
    "ManufacturersModelName": "Investigational_Device_7T",
    "Modality": "MR",
    "ParallelReductionFactorInPlane": 3,
    "PartialFourier": 1,
    "PatientPosition": "HFS",
    "PercentPhaseFOV": 100,
    "PhaseEncodingDirection": "i",
    "PhaseEncodingSteps": 94,
    "PhaseResolution": 1,
    "PixelBandwidth": 2003,
    "ProcedureStepDescription": "MRI_Procedure_Limited",
    "ProtocolName": "NIH_EPI_2.0iso_TR2_Run01",
    "PulseSequenceDetails": "%CustomerSeq%_inati_nih_epi",
    "ReceiveCoilName": "32Ch_Head_7T",
    "ReconMatrixPE": 96,
    "RepetitionTime": 2,
    "SAR": 0.0903172,
    "ScanningSequence": "EP",
    "SequenceName": "epfid2d1_96",
    "SequenceVariant": "SK",
    "SeriesDescription": "NIH_EPI_2.0iso_TR2_Run01",
    "SeriesNumber": 4,
    "ShimSetting": [
      -43,
      16,
      1336,
      2750,
      22,
      37,
      258,
      -281
    ],
    "SliceThickness": 2,
    "SliceTiming": [
      1.005,
      0,
      1.0425,
      0.0375,
      1.0775,
      0.075,
      1.115,
      0.1125,
      1.1525,
      0.15,
      1.19,
      0.1875,
      1.2275,
      0.2225,
      1.265,
      0.26,
      1.3025,
      0.2975,
      1.34,
      0.335,
      1.375,
      0.3725,
      1.4125,
      0.41,
      1.45,
      0.4475,
      1.4875,
      0.4825,
      1.525,
      0.52,
      1.5625,
      0.5575,
      1.6,
      0.595,
      1.635,
      0.6325,
      1.6725,
      0.67,
      1.71,
      0.7075,
      1.7475,
      0.745,
      1.785,
      0.78,
      1.8225,
      0.8175,
      1.86,
      0.855,
      1.8975,
      0.8925,
      1.9325,
      0.93,
      1.97,
      0.9675
    ],
    "SoftwareVersions": "syngo_MR_B17",
    "SpacingBetweenSlices": 2,
    "StationName": "FMRIFD7T",
    "TaskName": "FullFovAttentionTask",
    "TotalReadoutTime": 0.0190001,
    "TxRefAmp": 281,
    "dataset": "ds001555",
    "dcmmeta_affine": [
      [
        -2.0,
        4.1020681296188855e-10,
        0.0,
        95.98538208007812
      ],
      [
        4.1020681296188855e-10,
        2.0,
        0.0,
        -75.12183380126953
      ],
      [
        0.0,
        0.0,
        2.0,
        -31.942644119262695
      ],
      [
        0.0,
        0.0,
        0.0,
        1.0
      ]
    ],
    "dcmmeta_reorient_transform": [
      [
        0.0,
        -1.0,
        0.0,
        95.0
      ],
      [
        1.0,
        0.0,
        0.0,
        0.0
      ],
      [
        0.0,
        0.0,
        1.0,
        0.0
      ],
      [
        0.0,
        0.0,
        0.0,
        1.0
      ]
    ],
    "dcmmeta_shape": [
      96,
      96,
      54,
      164
    ],
    "dcmmeta_slice_dim": 2,
    "dcmmeta_version": 0.6,
    "global": {
      "const": {
        "AcquisitionMatrix": [
          0,
          96,
          96,
          0
        ],
        "Allergies": "No Known Allergies",
        "AngioFlag": "N",
        "BitsAllocated": 16,
        "BitsStored": 12,
        "BodyPartExamined": "HEAD",
        "Columns": 768,
        "EchoNumbers": 1,
        "EchoTime": 25.0,
        "EchoTrainLength": 1,
        "FlipAngle": 50.0,
        "HighBit": 11,
        "ImageOrientationPatient": [
          1.0,
          -2.051034e-10,
          0.0,
          2.051034e-10,
          1.0,
          0.0
        ],
        "ImagePositionPatient": [
          -767.98537955166,
          -786.87816794856,
          -31.942644119263
        ],
        "ImageType": [
          "ORIGINAL",
          "PRIMARY",
          "M",
          "ND",
          "ECHO_00",
          "MOSAIC"
        ],
        "ImagedNucleus": "1H",
        "ImagingFrequency": 297.204909,
        "InPlanePhaseEncodingDirection": "ROW",
        "LargestImagePixelValue": 4095,
        "MRAcquisitionType": "2D",
        "MagneticFieldStrength": 6.98,
        "Manufacturer": "SIEMENS",
        "ManufacturerModelName": "Investigational_Device_7T",
        "Modality": "MR",
        "NumberOfAverages": 1.0,
        "NumberOfPhaseEncodingSteps": 94,
        "PercentPhaseFieldOfView": 100.0,
        "PercentSampling": 100.0,
        "PerformedProcedureStepStartTime": "160834.390000",
        "PhotometricInterpretation": "MONOCHROME2",
        "PixelBandwidth": 2003.0,
        "PixelRepresentation": 0,
        "PixelSpacing": [
          2.0,
          2.0
        ],
        "PositionReferenceIndicator": "",
        "ProcedureCodeSequence": [
          {
            "CodeMeaning": "MRI Procedure Limited",
            "CodeValue": "MI01491",
            "CodingSchemeDesignator": "USA Standard",
            "ContextIdentifier": "4000135229"
          }
        ],
        "ProtocolName": "NIH_EPI_2.0iso_TR2_Run01",
        "ReferencedStudySequence": [
          {
            "ReferencedSOPClassUID": "1.2.840.10008.3.1.2.3.1",
            "ReferencedSOPInstanceUID": "1.2.840.113564.9.1.2787814059.53.2.5000101085"
          }
        ],
        "RepetitionTime": 2000.0,
        "RequestedProcedureCodeSequence": [
          {
            "CodeMeaning": "MRI Procedure Limited",
            "CodeValue": "MI01491",
            "CodingSchemeDesignator": "USA Standard",
            "ContextIdentifier": "4000135229"
          }
        ],
        "RequestingService": "NIMH Molecular Imaging Branch",
        "Rows": 768,
        "SAR": 0.09031717725915,
        "SamplesPerPixel": 1,
        "ScanningSequence": "EP",
        "SequenceName": "epfid2d1_96",
        "SequenceVariant": "SK",
        "SeriesDescription": "NIH_EPI_2.0iso_TR2_Run01",
        "SeriesNumber": 4,
        "SliceLocation": -31.942644119263,
        "SliceThickness": 2.0,
        "SmallestImagePixelValue": 0,
        "SoftwareVersions": "syngo MR B17",
        "SpacingBetweenSlices": 2.0000000359877,
        "TransmitCoilName": "32Ch_Head_7T",
        "VariableFlipAngleFlag": "N",
        "WindowCenterWidthExplanation": "Algo1",
        "dBdt": 0.0
      },
      "slices": {}
    },
    "modality": "bold",
    "run_id": 1,
    "session_id": "10",
    "subject_id": "003",
    "task_id": "FullFovAttentionTask",
    "time": {
      "samples": {
        "AcquisitionNumber": [
          1,
          2,
          3,
          4,
          5,
          6,
          7,
          8,
          9,
          10,
          11,
          12,
          13,
          14,
          15,
          16,
          17,
          18,
          19,
          20,
          21,
          22,
          23,
          24,
          25,
          26,
          27,
          28,
          29,
          30,
          31,
          32,
          33,
          34,
          35,
          36,
          37,
          38,
          39,
          40,
          41,
          42,
          43,
          44,
          45,
          46,
          47,
          48,
          49,
          50,
          51,
          52,
          53,
          54,
          55,
          56,
          57,
          58,
          59,
          60,
          61,
          62,
          63,
          64,
          65,
          66,
          67,
          68,
          69,
          70,
          71,
          72,
          73,
          74,
          75,
          76,
          77,
          78,
          79,
          80,
          81,
          82,
          83,
          84,
          85,
          86,
          87,
          88,
          89,
          90,
          91,
          92,
          93,
          94,
          95,
          96,
          97,
          98,
          99,
          100,
          101,
          102,
          103,
          104,
          105,
          106,
          107,
          108,
          109,
          110,
          111,
          112,
          113,
          114,
          115,
          116,
          117,
          118,
          119,
          120,
          121,
          122,
          123,
          124,
          125,
          126,
          127,
          128,
          129,
          130,
          131,
          132,
          133,
          134,
          135,
          136,
          137,
          138,
          139,
          140,
          141,
          142,
          143,
          144,
          145,
          146,
          147,
          148,
          149,
          150,
          151,
          152,
          153,
          154,
          155,
          156,
          157,
          158,
          159,
          160,
          161,
          162,
          163,
          164
        ],
        "AcquisitionTime": [
          "162017.550000",
          "162021.565000",
          "162023.572500",
          "162025.582500",
          "162027.590000",
          "162029.597500",
          "162031.605000",
          "162033.612500",
          "162035.622500",
          "162037.630000",
          "162039.637500",
          "162041.645000",
          "162043.652500",
          "162045.662500",
          "162047.670000",
          "162049.677500",
          "162051.685000",
          "162053.695000",
          "162055.702500",
          "162057.710000",
          "162059.717500",
          "162101.725000",
          "162103.735000",
          "162105.742500",
          "162107.750000",
          "162109.757500",
          "162111.765000",
          "162113.775000",
          "162115.782500",
          "162117.790000",
          "162119.797500",
          "162121.805000",
          "162123.815000",
          "162125.822500",
          "162127.830000",
          "162129.837500",
          "162131.847500",
          "162133.855000",
          "162135.862500",
          "162137.870000",
          "162139.877500",
          "162141.887500",
          "162143.895000",
          "162145.902500",
          "162147.910000",
          "162149.917500",
          "162151.927500",
          "162153.935000",
          "162155.942500",
          "162157.950000",
          "162159.960000",
          "162201.967500",
          "162203.975000",
          "162205.982500",
          "162207.990000",
          "162210.000000",
          "162212.007500",
          "162214.015000",
          "162216.022500",
          "162218.030000",
          "162220.040000",
          "162222.047500",
          "162224.055000",
          "162226.062500",
          "162228.072500",
          "162230.080000",
          "162232.087500",
          "162234.095000",
          "162236.102500",
          "162238.112500",
          "162240.120000",
          "162242.127500",
          "162244.135000",
          "162246.142500",
          "162248.152500",
          "162250.160000",
          "162252.167500",
          "162254.175000",
          "162256.182500",
          "162258.192500",
          "162300.200000",
          "162302.207500",
          "162304.215000",
          "162306.225000",
          "162308.232500",
          "162310.240000",
          "162312.247500",
          "162314.255000",
          "162316.265000",
          "162318.272500",
          "162320.280000",
          "162322.287500",
          "162324.295000",
          "162326.305000",
          "162328.312500",
          "162330.320000",
          "162332.327500",
          "162334.337500",
          "162336.345000",
          "162338.352500",
          "162340.360000",
          "162342.367500",
          "162344.377500",
          "162346.385000",
          "162348.392500",
          "162350.400000",
          "162352.407500",
          "162354.417500",
          "162356.425000",
          "162358.432500",
          "162400.440000",
          "162402.450000",
          "162404.457500",
          "162406.465000",
          "162408.472500",
          "162410.480000",
          "162412.490000",
          "162414.497500",
          "162416.505000",
          "162418.512500",
          "162420.520000",
          "162422.530000",
          "162424.537500",
          "162426.545000",
          "162428.552500",
          "162430.560000",
          "162432.570000",
          "162434.577500",
          "162436.585000",
          "162438.592500",
          "162440.602500",
          "162442.610000",
          "162444.617500",
          "162446.625000",
          "162448.632500",
          "162450.642500",
          "162452.650000",
          "162454.657500",
          "162456.665000",
          "162458.672500",
          "162500.682500",
          "162502.690000",
          "162504.697500",
          "162506.705000",
          "162508.715000",
          "162510.722500",
          "162512.730000",
          "162514.737500",
          "162516.745000",
          "162518.755000",
          "162520.762500",
          "162522.770000",
          "162524.777500",
          "162526.785000",
          "162528.795000",
          "162530.802500",
          "162532.810000",
          "162534.817500",
          "162536.827500",
          "162538.835000",
          "162540.842500",
          "162542.850000",
          "162544.857500",
          "162546.867500"
        ],
        "ContentTime": [
          "162110.843000",
          "162110.843000",
          "162110.843000",
          "162110.843000",
          "162110.843000",
          "162110.859000",
          "162110.859000",
          "162110.859000",
          "162110.859000",
          "162110.859000",
          "162110.859000",
          "162110.875000",
          "162110.875000",
          "162110.875000",
          "162110.875000",
          "162110.875000",
          "162110.875000",
          "162110.890000",
          "162110.890000",
          "162110.890000",
          "162110.890000",
          "162110.890000",
          "162110.890000",
          "162110.906000",
          "162110.906000",
          "162150.812000",
          "162150.812000",
          "162150.828000",
          "162150.828000",
          "162150.828000",
          "162150.828000",
          "162150.828000",
          "162150.828000",
          "162150.828000",
          "162150.843000",
          "162150.843000",
          "162150.843000",
          "162150.843000",
          "162150.843000",
          "162150.859000",
          "162150.859000",
          "162150.859000",
          "162150.859000",
          "162150.859000",
          "162150.859000",
          "162230.812000",
          "162230.828000",
          "162230.828000",
          "162230.828000",
          "162230.828000",
          "162230.828000",
          "162230.843000",
          "162230.843000",
          "162230.843000",
          "162230.843000",
          "162230.843000",
          "162230.843000",
          "162230.859000",
          "162230.859000",
          "162230.859000",
          "162230.859000",
          "162230.859000",
          "162230.859000",
          "162230.859000",
          "162230.875000",
          "162310.812000",
          "162310.812000",
          "162310.828000",
          "162310.828000",
          "162310.828000",
          "162310.828000",
          "162310.828000",
          "162310.828000",
          "162310.828000",
          "162310.843000",
          "162310.843000",
          "162310.843000",
          "162310.843000",
          "162310.843000",
          "162310.843000",
          "162310.859000",
          "162310.859000",
          "162310.859000",
          "162310.859000",
          "162310.859000",
          "162350.812000",
          "162350.828000",
          "162350.828000",
          "162350.828000",
          "162350.828000",
          "162350.828000",
          "162350.828000",
          "162350.843000",
          "162350.843000",
          "162350.843000",
          "162350.843000",
          "162350.843000",
          "162350.843000",
          "162350.859000",
          "162350.859000",
          "162350.859000",
          "162350.859000",
          "162350.859000",
          "162350.859000",
          "162350.859000",
          "162430.812000",
          "162430.812000",
          "162430.828000",
          "162430.828000",
          "162430.828000",
          "162430.828000",
          "162430.828000",
          "162430.828000",
          "162430.843000",
          "162430.843000",
          "162430.843000",
          "162430.843000",
          "162430.843000",
          "162430.843000",
          "162430.859000",
          "162430.859000",
          "162430.859000",
          "162430.859000",
          "162430.859000",
          "162430.859000",
          "162510.812000",
          "162510.812000",
          "162510.828000",
          "162510.828000",
          "162510.828000",
          "162510.828000",
          "162510.828000",
          "162510.843000",
          "162510.843000",
          "162510.843000",
          "162510.843000",
          "162510.859000",
          "162510.859000",
          "162510.859000",
          "162510.859000",
          "162510.875000",
          "162510.875000",
          "162510.875000",
          "162510.875000",
          "162510.875000",
          "162547.968000",
          "162547.968000",
          "162547.968000",
          "162547.968000",
          "162547.984000",
          "162547.984000",
          "162547.984000",
          "162547.984000",
          "162547.984000",
          "162548.000000",
          "162548.000000",
          "162548.000000",
          "162548.015000",
          "162548.015000",
          "162548.015000",
          "162548.015000",
          "162548.015000",
          "162548.015000",
          "162548.015000"
        ],
        "InstanceCreationTime": [
          "162110.843000",
          "162110.843000",
          "162110.843000",
          "162110.843000",
          "162110.843000",
          "162110.859000",
          "162110.859000",
          "162110.859000",
          "162110.859000",
          "162110.859000",
          "162110.859000",
          "162110.875000",
          "162110.875000",
          "162110.875000",
          "162110.875000",
          "162110.875000",
          "162110.875000",
          "162110.890000",
          "162110.890000",
          "162110.890000",
          "162110.890000",
          "162110.890000",
          "162110.890000",
          "162110.906000",
          "162110.906000",
          "162150.812000",
          "162150.812000",
          "162150.828000",
          "162150.828000",
          "162150.828000",
          "162150.828000",
          "162150.828000",
          "162150.828000",
          "162150.828000",
          "162150.843000",
          "162150.843000",
          "162150.843000",
          "162150.843000",
          "162150.843000",
          "162150.859000",
          "162150.859000",
          "162150.859000",
          "162150.859000",
          "162150.859000",
          "162150.859000",
          "162230.812000",
          "162230.828000",
          "162230.828000",
          "162230.828000",
          "162230.828000",
          "162230.828000",
          "162230.843000",
          "162230.843000",
          "162230.843000",
          "162230.843000",
          "162230.843000",
          "162230.843000",
          "162230.859000",
          "162230.859000",
          "162230.859000",
          "162230.859000",
          "162230.859000",
          "162230.859000",
          "162230.859000",
          "162230.875000",
          "162310.812000",
          "162310.812000",
          "162310.828000",
          "162310.828000",
          "162310.828000",
          "162310.828000",
          "162310.828000",
          "162310.828000",
          "162310.828000",
          "162310.843000",
          "162310.843000",
          "162310.843000",
          "162310.843000",
          "162310.843000",
          "162310.843000",
          "162310.859000",
          "162310.859000",
          "162310.859000",
          "162310.859000",
          "162310.859000",
          "162350.812000",
          "162350.828000",
          "162350.828000",
          "162350.828000",
          "162350.828000",
          "162350.828000",
          "162350.828000",
          "162350.843000",
          "162350.843000",
          "162350.843000",
          "162350.843000",
          "162350.843000",
          "162350.843000",
          "162350.859000",
          "162350.859000",
          "162350.859000",
          "162350.859000",
          "162350.859000",
          "162350.859000",
          "162350.859000",
          "162430.812000",
          "162430.812000",
          "162430.828000",
          "162430.828000",
          "162430.828000",
          "162430.828000",
          "162430.828000",
          "162430.828000",
          "162430.843000",
          "162430.843000",
          "162430.843000",
          "162430.843000",
          "162430.843000",
          "162430.843000",
          "162430.859000",
          "162430.859000",
          "162430.859000",
          "162430.859000",
          "162430.859000",
          "162430.859000",
          "162510.812000",
          "162510.812000",
          "162510.828000",
          "162510.828000",
          "162510.828000",
          "162510.828000",
          "162510.828000",
          "162510.843000",
          "162510.843000",
          "162510.843000",
          "162510.843000",
          "162510.859000",
          "162510.859000",
          "162510.859000",
          "162510.859000",
          "162510.875000",
          "162510.875000",
          "162510.875000",
          "162510.875000",
          "162510.875000",
          "162547.968000",
          "162547.968000",
          "162547.968000",
          "162547.968000",
          "162547.984000",
          "162547.984000",
          "162547.984000",
          "162547.984000",
          "162547.984000",
          "162548.000000",
          "162548.000000",
          "162548.000000",
          "162548.015000",
          "162548.015000",
          "162548.015000",
          "162548.015000",
          "162548.015000",
          "162548.015000",
          "162548.015000"
        ],
        "InstanceNumber": [
          1,
          2,
          3,
          4,
          5,
          6,
          7,
          8,
          9,
          10,
          11,
          12,
          13,
          14,
          15,
          16,
          17,
          18,
          19,
          20,
          21,
          22,
          23,
          24,
          25,
          26,
          27,
          28,
          29,
          30,
          31,
          32,
          33,
          34,
          35,
          36,
          37,
          38,
          39,
          40,
          41,
          42,
          43,
          44,
          45,
          46,
          47,
          48,
          49,
          50,
          51,
          52,
          53,
          54,
          55,
          56,
          57,
          58,
          59,
          60,
          61,
          62,
          63,
          64,
          65,
          66,
          67,
          68,
          69,
          70,
          71,
          72,
          73,
          74,
          75,
          76,
          77,
          78,
          79,
          80,
          81,
          82,
          83,
          84,
          85,
          86,
          87,
          88,
          89,
          90,
          91,
          92,
          93,
          94,
          95,
          96,
          97,
          98,
          99,
          100,
          101,
          102,
          103,
          104,
          105,
          106,
          107,
          108,
          109,
          110,
          111,
          112,
          113,
          114,
          115,
          116,
          117,
          118,
          119,
          120,
          121,
          122,
          123,
          124,
          125,
          126,
          127,
          128,
          129,
          130,
          131,
          132,
          133,
          134,
          135,
          136,
          137,
          138,
          139,
          140,
          141,
          142,
          143,
          144,
          145,
          146,
          147,
          148,
          149,
          150,
          151,
          152,
          153,
          154,
          155,
          156,
          157,
          158,
          159,
          160,
          161,
          162,
          163,
          164
        ],
        "WindowCenter": [
          985.0,
          985.0,
          985.0,
          985.0,
          985.0,
          986.0,
          985.0,
          985.0,
          985.0,
          986.0,
          985.0,
          986.0,
          987.0,
          987.0,
          985.0,
          985.0,
          985.0,
          986.0,
          986.0,
          986.0,
          986.0,
          986.0,
          986.0,
          986.0,
          986.0,
          985.0,
          985.0,
          984.0,
          984.0,
          983.0,
          984.0,
          985.0,
          985.0,
          984.0,
          985.0,
          984.0,
          984.0,
          984.0,
          984.0,
          984.0,
          985.0,
          984.0,
          984.0,
          984.0,
          985.0,
          985.0,
          985.0,
          984.0,
          983.0,
          984.0,
          984.0,
          984.0,
          984.0,
          985.0,
          986.0,
          985.0,
          984.0,
          984.0,
          984.0,
          984.0,
          984.0,
          984.0,
          984.0,
          984.0,
          985.0,
          984.0,
          983.0,
          984.0,
          984.0,
          984.0,
          984.0,
          984.0,
          985.0,
          984.0,
          984.0,
          984.0,
          984.0,
          983.0,
          985.0,
          984.0,
          984.0,
          983.0,
          983.0,
          982.0,
          983.0,
          984.0,
          984.0,
          983.0,
          983.0,
          983.0,
          983.0,
          984.0,
          984.0,
          984.0,
          984.0,
          984.0,
          984.0,
          984.0,
          984.0,
          985.0,
          984.0,
          984.0,
          984.0,
          984.0,
          985.0,
          984.0,
          984.0,
          983.0,
          984.0,
          983.0,
          983.0,
          983.0,
          985.0,
          985.0,
          984.0,
          984.0,
          984.0,
          984.0,
          983.0,
          984.0,
          983.0,
          984.0,
          983.0,
          984.0,
          984.0,
          984.0,
          983.0,
          984.0,
          985.0,
          985.0,
          983.0,
          982.0,
          982.0,
          983.0,
          984.0,
          983.0,
          983.0,
          985.0,
          986.0,
          986.0,
          985.0,
          985.0,
          984.0,
          983.0,
          984.0,
          984.0,
          984.0,
          984.0,
          985.0,
          986.0,
          986.0,
          986.0,
          985.0,
          985.0,
          985.0,
          986.0,
          985.0,
          985.0,
          986.0,
          985.0,
          985.0,
          984.0,
          984.0,
          984.0
        ],
        "WindowWidth": [
          2620.0,
          2623.0,
          2626.0,
          2625.0,
          2624.0,
          2623.0,
          2625.0,
          2629.0,
          2629.0,
          2629.0,
          2629.0,
          2632.0,
          2632.0,
          2629.0,
          2630.0,
          2628.0,
          2629.0,
          2629.0,
          2627.0,
          2627.0,
          2627.0,
          2628.0,
          2626.0,
          2623.0,
          2621.0,
          2620.0,
          2618.0,
          2614.0,
          2614.0,
          2614.0,
          2618.0,
          2621.0,
          2619.0,
          2617.0,
          2617.0,
          2617.0,
          2618.0,
          2619.0,
          2623.0,
          2624.0,
          2623.0,
          2624.0,
          2624.0,
          2623.0,
          2621.0,
          2622.0,
          2620.0,
          2618.0,
          2616.0,
          2616.0,
          2615.0,
          2613.0,
          2615.0,
          2620.0,
          2621.0,
          2618.0,
          2613.0,
          2612.0,
          2616.0,
          2618.0,
          2614.0,
          2616.0,
          2616.0,
          2618.0,
          2619.0,
          2614.0,
          2614.0,
          2617.0,
          2616.0,
          2617.0,
          2620.0,
          2621.0,
          2619.0,
          2619.0,
          2620.0,
          2618.0,
          2618.0,
          2618.0,
          2615.0,
          2615.0,
          2616.0,
          2610.0,
          2607.0,
          2609.0,
          2612.0,
          2612.0,
          2611.0,
          2609.0,
          2609.0,
          2611.0,
          2615.0,
          2612.0,
          2612.0,
          2613.0,
          2616.0,
          2617.0,
          2619.0,
          2619.0,
          2624.0,
          2626.0,
          2623.0,
