{
  "aor": 0.0017187804878048781,
  "aqi": 0.008238513719512196,
  "bids_meta": {
    "AcquisitionMatrixPE": 96,
    "AcquisitionNumber": 1,
    "AcquisitionTime": "10:33:20.187500",
    "BandwidthPerPixelPhaseEncode": 52.083,
    "BaseResolution": 96,
    "BodyPartExamined": "HEAD",
    "ConversionSoftware": "dcm2niix",
    "ConversionSoftwareVersion": "v1.0.20180622 GCC6.3.0",
    "DerivedVendorReportedEchoSpacing": 0.000600004,
    "DeviceSerialNumber": "18926",
    "DwellTime": 2.6e-06,
    "EchoTime": 0.025,
    "EffectiveEchoSpacing": 0.000200001,
    "FlipAngle": 50,
    "ImageOrientationPatientDICOM": [
      0.999992,
      0.000357506,
      0.00408853,
      2.09192e-10,
      0.996199,
      -0.0871089
    ],
    "ImageType": [
      "ORIGINAL",
      "PRIMARY",
      "M",
      "ND",
      "ECHO",
      "00",
      "MOSAIC"
    ],
    "InPlanePhaseEncodingDirectionDICOM": "ROW",
    "InstitutionName": "NIMH",
    "InstitutionalDepartmentName": "Department",
    "MRAcquisitionType": "2D",
    "MagneticFieldStrength": 6.98,
    "Manufacturer": "Siemens",
    "ManufacturersModelName": "Investigational_Device_7T",
    "Modality": "MR",
    "ParallelReductionFactorInPlane": 3,
    "PartialFourier": 1,
    "PatientPosition": "HFS",
    "PercentPhaseFOV": 100,
    "PhaseEncodingDirection": "i",
    "PhaseEncodingSteps": 94,
    "PhaseResolution": 1,
    "PixelBandwidth": 2003,
    "ProcedureStepDescription": "UserProtocols_gonzalez",
    "ProtocolName": "NIH_EPI_2.0iso_TR2_Run01",
    "PulseSequenceDetails": "%CustomerSeq%_inati_nih_epi",
    "ReceiveCoilName": "32Ch_Head_7T",
    "ReconMatrixPE": 96,
    "RepetitionTime": 2,
    "SAR": 0.0867394,
    "ScanningSequence": "EP",
    "SequenceName": "epfid2d1_96",
    "SequenceVariant": "SK",
    "SeriesDescription": "NIH_EPI_2.0iso_TR2_Run01",
    "SeriesNumber": 5,
    "ShimSetting": [
      -98,
      141,
      1026,
      2156,
      -114,
      641,
      159,
      -359
    ],
    "SliceThickness": 2,
    "SliceTiming": [
      1.005,
      0,
      1.0425,
      0.0375,
      1.0775,
      0.075,
      1.115,
      0.1125,
      1.1525,
      0.15,
      1.19,
      0.185,
      1.2275,
      0.2225,
      1.265,
      0.26,
      1.3025,
      0.2975,
      1.34,
      0.335,
      1.375,
      0.3725,
      1.4125,
      0.41,
      1.45,
      0.4475,
      1.4875,
      0.4825,
      1.525,
      0.52,
      1.5625,
      0.5575,
      1.6,
      0.595,
      1.635,
      0.6325,
      1.6725,
      0.67,
      1.71,
      0.7075,
      1.7475,
      0.745,
      1.785,
      0.78,
      1.8225,
      0.8175,
      1.86,
      0.855,
      1.8975,
      0.8925,
      1.9325,
      0.93,
      1.97,
      0.9675
    ],
    "SoftwareVersions": "syngo_MR_B17",
    "SpacingBetweenSlices": 2,
    "StationName": "FMRIFD7T",
    "TaskName": "FullFovAttentionTask",
    "TotalReadoutTime": 0.0190001,
    "TxRefAmp": 271,
    "dataset": "ds001555",
    "dcmmeta_affine": [
      [
        -1.9999831914901733,
        4.183849933170336e-10,
        0.008208253420889378,
        95.76705169677734
      ],
      [
        -0.00071501120692119,
        1.9923975467681885,
        -0.17421627044677734,
        -67.41278839111328
      ],
      [
        0.00817705225199461,
        0.17421773076057434,
        1.9923808574676514,
        -48.4176139831543
      ],
      [
        0.0,
        0.0,
        0.0,
        1.0
      ]
    ],
    "dcmmeta_reorient_transform": [
      [
        0.0,
        -1.0,
        0.0,
        95.0
      ],
      [
        1.0,
        0.0,
        0.0,
        0.0
      ],
      [
        0.0,
        0.0,
        1.0,
        0.0
      ],
      [
        0.0,
        0.0,
        0.0,
        1.0
      ]
    ],
    "dcmmeta_shape": [
      96,
      96,
      54,
      164
    ],
    "dcmmeta_slice_dim": 2,
    "dcmmeta_version": 0.6,
    "global": {
      "const": {
        "AcquisitionMatrix": [
          0,
          96,
          96,
          0
        ],
        "AngioFlag": "N",
        "BitsAllocated": 16,
        "BitsStored": 12,
        "BodyPartExamined": "HEAD",
        "Columns": 768,
        "EchoNumbers": 1,
        "EchoTime": 25.0,
        "EchoTrainLength": 1,
        "FlipAngle": 50.0,
        "HighBit": 11,
        "ImageOrientationPatient": [
          0.99999157803689,
          0.00035750560761,
          0.00408852602124,
          2.091925e-10,
          0.99619879815356,
          -0.087108866124
        ],
        "ImagePositionPatient": [
          -767.76139277381,
          -791.55081700269,
          23.922737653976
        ],
        "ImageType": [
          "ORIGINAL",
          "PRIMARY",
          "M",
          "ND",
          "ECHO_00",
          "MOSAIC"
        ],
        "ImagedNucleus": "1H",
        "ImagingFrequency": 297.204898,
        "InPlanePhaseEncodingDirection": "ROW",
        "LargestImagePixelValue": 4095,
        "MRAcquisitionType": "2D",
        "MagneticFieldStrength": 6.98,
        "Manufacturer": "SIEMENS",
        "ManufacturerModelName": "Investigational_Device_7T",
        "Modality": "MR",
        "NumberOfAverages": 1.0,
        "NumberOfPhaseEncodingSteps": 94,
        "PercentPhaseFieldOfView": 100.0,
        "PercentSampling": 100.0,
        "PerformedProcedureStepStartTime": "101729.015000",
        "PhotometricInterpretation": "MONOCHROME2",
        "PixelBandwidth": 2003.0,
        "PixelRepresentation": 0,
        "PixelSpacing": [
          2.0,
          2.0
        ],
        "PositionReferenceIndicator": "",
        "ProtocolName": "NIH_EPI_2.0iso_TR2_Run01",
        "RepetitionTime": 2000.0,
        "Rows": 768,
        "SAR": 0.08673938405539,
        "SamplesPerPixel": 1,
        "ScanningSequence": "EP",
        "SequenceName": "epfid2d1_96",
        "SequenceVariant": "SK",
        "SeriesDescription": "NIH_EPI_2.0iso_TR2_Run01",
        "SeriesNumber": 5,
        "SliceLocation": -41.967921689492,
        "SliceThickness": 2.0,
        "SmallestImagePixelValue": 0,
        "SoftwareVersions": "syngo MR B17",
        "SpacingBetweenSlices": 2.0000000115774,
        "TransmitCoilName": "32Ch_Head_7T",
        "VariableFlipAngleFlag": "N",
        "WindowCenterWidthExplanation": "Algo1",
        "dBdt": 0.0
      },
      "slices": {}
    },
    "modality": "bold",
    "run_id": 2,
    "session_id": "05",
    "subject_id": "003",
    "task_id": "FullFovAttentionTask",
    "time": {
      "samples": {
        "AcquisitionNumber": [
          1,
          2,
          3,
          4,
          5,
          6,
          7,
          8,
          9,
          10,
          11,
          12,
          13,
          14,
          15,
          16,
          17,
          18,
          19,
          20,
          21,
          22,
          23,
          24,
          25,
          26,
          27,
          28,
          29,
          30,
          31,
          32,
          33,
          34,
          35,
          36,
          37,
          38,
          39,
          40,
          41,
          42,
          43,
          44,
          45,
          46,
          47,
          48,
          49,
          50,
          51,
          52,
          53,
          54,
          55,
          56,
          57,
          58,
          59,
          60,
          61,
          62,
          63,
          64,
          65,
          66,
          67,
          68,
          69,
          70,
          71,
          72,
          73,
          74,
          75,
          76,
          77,
          78,
          79,
          80,
          81,
          82,
          83,
          84,
          85,
          86,
          87,
          88,
          89,
          90,
          91,
          92,
          93,
          94,
          95,
          96,
          97,
          98,
          99,
          100,
          101,
          102,
          103,
          104,
          105,
          106,
          107,
          108,
          109,
          110,
          111,
          112,
          113,
          114,
          115,
          116,
          117,
          118,
          119,
          120,
          121,
          122,
          123,
          124,
          125,
          126,
          127,
          128,
          129,
          130,
          131,
          132,
          133,
          134,
          135,
          136,
          137,
          138,
          139,
          140,
          141,
          142,
          143,
          144,
          145,
          146,
          147,
          148,
          149,
          150,
          151,
          152,
          153,
          154,
          155,
          156,
          157,
          158,
          159,
          160,
          161,
          162,
          163,
          164
        ],
        "AcquisitionTime": [
          "103320.187500",
          "103324.202500",
          "103326.210000",
          "103328.220000",
          "103330.227500",
          "103332.235000",
          "103334.242500",
          "103336.250000",
          "103338.260000",
          "103340.267500",
          "103342.275000",
          "103344.282500",
          "103346.290000",
          "103348.300000",
          "103350.307500",
          "103352.315000",
          "103354.322500",
          "103356.330000",
          "103358.340000",
          "103400.347500",
          "103402.355000",
          "103404.362500",
          "103406.372500",
          "103408.380000",
          "103410.387500",
          "103412.395000",
          "103414.402500",
          "103416.412500",
          "103418.420000",
          "103420.427500",
          "103422.435000",
          "103424.442500",
          "103426.452500",
          "103428.460000",
          "103430.467500",
          "103432.475000",
          "103434.485000",
          "103436.492500",
          "103438.500000",
          "103440.507500",
          "103442.515000",
          "103444.525000",
          "103446.532500",
          "103448.540000",
          "103450.547500",
          "103452.555000",
          "103454.565000",
          "103456.572500",
          "103458.580000",
          "103500.587500",
          "103502.597500",
          "103504.605000",
          "103506.612500",
          "103508.620000",
          "103510.627500",
          "103512.637500",
          "103514.645000",
          "103516.652500",
          "103518.660000",
          "103520.667500",
          "103522.677500",
          "103524.685000",
          "103526.692500",
          "103528.700000",
          "103530.707500",
          "103532.717500",
          "103534.725000",
          "103536.732500",
          "103538.740000",
          "103540.750000",
          "103542.757500",
          "103544.765000",
          "103546.772500",
          "103548.780000",
          "103550.790000",
          "103552.797500",
          "103554.805000",
          "103556.812500",
          "103558.820000",
          "103600.830000",
          "103602.837500",
          "103604.845000",
          "103606.852500",
          "103608.862500",
          "103610.870000",
          "103612.877500",
          "103614.885000",
          "103616.892500",
          "103618.902500",
          "103620.910000",
          "103622.917500",
          "103624.925000",
          "103626.932500",
          "103628.942500",
          "103630.950000",
          "103632.957500",
          "103634.965000",
          "103636.975000",
          "103638.982500",
          "103640.990000",
          "103642.997500",
          "103645.005000",
          "103647.015000",
          "103649.022500",
          "103651.030000",
          "103653.037500",
          "103655.045000",
          "103657.055000",
          "103659.062500",
          "103701.070000",
          "103703.077500",
          "103705.087500",
          "103707.095000",
          "103709.102500",
          "103711.110000",
          "103713.117500",
          "103715.127500",
          "103717.135000",
          "103719.142500",
          "103721.150000",
          "103723.157500",
          "103725.167500",
          "103727.175000",
          "103729.182500",
          "103731.190000",
          "103733.197500",
          "103735.207500",
          "103737.215000",
          "103739.222500",
          "103741.230000",
          "103743.240000",
          "103745.247500",
          "103747.255000",
          "103749.262500",
          "103751.270000",
          "103753.280000",
          "103755.287500",
          "103757.295000",
          "103759.302500",
          "103801.310000",
          "103803.320000",
          "103805.327500",
          "103807.335000",
          "103809.342500",
          "103811.352500",
          "103813.360000",
          "103815.367500",
          "103817.375000",
          "103819.382500",
          "103821.392500",
          "103823.400000",
          "103825.407500",
          "103827.415000",
          "103829.422500",
          "103831.432500",
          "103833.440000",
          "103835.447500",
          "103837.455000",
          "103839.465000",
          "103841.472500",
          "103843.480000",
          "103845.487500",
          "103847.495000",
          "103849.505000"
        ],
        "ContentTime": [
          "103419.750000",
          "103419.750000",
          "103419.750000",
          "103419.765000",
          "103419.765000",
          "103419.765000",
          "103419.765000",
          "103419.765000",
          "103419.765000",
          "103419.781000",
          "103419.781000",
          "103419.781000",
          "103419.781000",
          "103419.781000",
          "103419.796000",
          "103419.796000",
          "103419.796000",
          "103419.796000",
          "103419.796000",
          "103419.796000",
          "103419.796000",
          "103419.812000",
          "103419.812000",
          "103419.812000",
          "103419.812000",
          "103419.812000",
          "103419.812000",
          "103419.828000",
          "103459.734000",
          "103459.734000",
          "103459.750000",
          "103459.750000",
          "103459.750000",
          "103459.750000",
          "103459.750000",
          "103459.750000",
          "103459.765000",
          "103459.765000",
          "103459.765000",
          "103459.765000",
          "103459.765000",
          "103459.765000",
          "103459.765000",
          "103459.781000",
          "103459.781000",
          "103459.781000",
          "103459.781000",
          "103459.781000",
          "103539.734000",
          "103539.734000",
          "103539.750000",
          "103539.750000",
          "103539.750000",
          "103539.750000",
          "103539.750000",
          "103539.750000",
          "103539.765000",
          "103539.765000",
          "103539.765000",
          "103539.765000",
          "103539.781000",
          "103539.781000",
          "103539.781000",
          "103539.781000",
          "103539.796000",
          "103539.796000",
          "103539.796000",
          "103539.796000",
          "103619.734000",
          "103619.750000",
          "103619.750000",
          "103619.750000",
          "103619.750000",
          "103619.765000",
          "103619.765000",
          "103619.765000",
          "103619.765000",
          "103619.781000",
          "103619.781000",
          "103619.781000",
          "103619.781000",
          "103619.781000",
          "103619.781000",
          "103619.781000",
          "103619.796000",
          "103619.796000",
          "103619.796000",
          "103619.796000",
          "103659.734000",
          "103659.734000",
          "103659.750000",
          "103659.750000",
          "103659.750000",
          "103659.750000",
          "103659.750000",
          "103659.750000",
          "103659.765000",
          "103659.765000",
          "103659.765000",
          "103659.765000",
          "103659.765000",
          "103659.765000",
          "103659.765000",
          "103659.781000",
          "103659.781000",
          "103659.781000",
          "103659.781000",
          "103659.781000",
          "103739.734000",
          "103739.734000",
          "103739.750000",
          "103739.750000",
          "103739.765000",
          "103739.765000",
          "103739.765000",
          "103739.765000",
          "103739.765000",
          "103739.765000",
          "103739.765000",
          "103739.781000",
          "103739.781000",
          "103739.781000",
          "103739.781000",
          "103739.781000",
          "103739.781000",
          "103739.796000",
          "103739.796000",
          "103739.796000",
          "103819.734000",
          "103819.734000",
          "103819.750000",
          "103819.750000",
          "103819.750000",
          "103819.750000",
          "103819.750000",
          "103819.750000",
          "103819.765000",
          "103819.765000",
          "103819.765000",
          "103819.765000",
          "103819.765000",
          "103819.781000",
          "103819.781000",
          "103819.796000",
          "103819.796000",
          "103819.796000",
          "103819.796000",
          "103819.812000",
          "103850.015000",
          "103850.015000",
          "103850.015000",
          "103850.015000",
          "103850.031000",
          "103850.031000",
          "103850.031000",
          "103850.046000",
          "103850.046000",
          "103850.046000",
          "103850.046000",
          "103850.046000",
          "103850.046000",
          "103850.046000",
          "103850.062000",
          "103850.062000"
        ],
        "InstanceCreationTime": [
          "103419.750000",
          "103419.750000",
          "103419.750000",
          "103419.765000",
          "103419.765000",
          "103419.765000",
          "103419.765000",
          "103419.765000",
          "103419.765000",
          "103419.781000",
          "103419.781000",
          "103419.781000",
          "103419.781000",
          "103419.781000",
          "103419.796000",
          "103419.796000",
          "103419.796000",
          "103419.796000",
          "103419.796000",
          "103419.796000",
          "103419.796000",
          "103419.812000",
          "103419.812000",
          "103419.812000",
          "103419.812000",
          "103419.812000",
          "103419.812000",
          "103419.828000",
          "103459.734000",
          "103459.734000",
          "103459.750000",
          "103459.750000",
          "103459.750000",
          "103459.750000",
          "103459.750000",
          "103459.750000",
          "103459.765000",
          "103459.765000",
          "103459.765000",
          "103459.765000",
          "103459.765000",
          "103459.765000",
          "103459.765000",
          "103459.781000",
          "103459.781000",
          "103459.781000",
          "103459.781000",
          "103459.781000",
          "103539.734000",
          "103539.734000",
          "103539.750000",
          "103539.750000",
          "103539.750000",
          "103539.750000",
          "103539.750000",
          "103539.750000",
          "103539.765000",
          "103539.765000",
          "103539.765000",
          "103539.765000",
          "103539.781000",
          "103539.781000",
          "103539.781000",
          "103539.781000",
          "103539.796000",
          "103539.796000",
          "103539.796000",
          "103539.796000",
          "103619.734000",
          "103619.750000",
          "103619.750000",
          "103619.750000",
          "103619.750000",
          "103619.765000",
          "103619.765000",
          "103619.765000",
          "103619.765000",
          "103619.781000",
          "103619.781000",
          "103619.781000",
          "103619.781000",
          "103619.781000",
          "103619.781000",
          "103619.781000",
          "103619.796000",
          "103619.796000",
          "103619.796000",
          "103619.796000",
          "103659.734000",
          "103659.734000",
          "103659.750000",
          "103659.750000",
          "103659.750000",
          "103659.750000",
          "103659.750000",
          "103659.750000",
          "103659.765000",
          "103659.765000",
          "103659.765000",
          "103659.765000",
          "103659.765000",
          "103659.765000",
          "103659.765000",
          "103659.781000",
          "103659.781000",
          "103659.781000",
          "103659.781000",
          "103659.781000",
          "103739.734000",
          "103739.734000",
          "103739.750000",
          "103739.750000",
          "103739.765000",
          "103739.765000",
          "103739.765000",
          "103739.765000",
          "103739.765000",
          "103739.765000",
          "103739.765000",
          "103739.781000",
          "103739.781000",
          "103739.781000",
          "103739.781000",
          "103739.781000",
          "103739.781000",
          "103739.796000",
          "103739.796000",
          "103739.796000",
          "103819.734000",
          "103819.734000",
          "103819.750000",
          "103819.750000",
          "103819.750000",
          "103819.750000",
          "103819.750000",
          "103819.750000",
          "103819.765000",
          "103819.765000",
          "103819.765000",
          "103819.765000",
          "103819.765000",
          "103819.781000",
          "103819.781000",
          "103819.796000",
          "103819.796000",
          "103819.796000",
          "103819.796000",
          "103819.812000",
          "103850.015000",
          "103850.015000",
          "103850.015000",
          "103850.015000",
          "103850.031000",
          "103850.031000",
          "103850.031000",
          "103850.046000",
          "103850.046000",
          "103850.046000",
          "103850.046000",
          "103850.046000",
          "103850.046000",
          "103850.046000",
          "103850.062000",
          "103850.062000"
        ],
        "InstanceNumber": [
          1,
          2,
          3,
          4,
          5,
          6,
          7,
          8,
          9,
          10,
          11,
          12,
          13,
          14,
          15,
          16,
          17,
          18,
          19,
          20,
          21,
          22,
          23,
          24,
          25,
          26,
          27,
          28,
          29,
          30,
          31,
          32,
          33,
          34,
          35,
          36,
          37,
          38,
          39,
          40,
          41,
          42,
          43,
          44,
          45,
          46,
          47,
          48,
          49,
          50,
          51,
          52,
          53,
          54,
          55,
          56,
          57,
          58,
          59,
          60,
          61,
          62,
          63,
          64,
          65,
          66,
          67,
          68,
          69,
          70,
          71,
          72,
          73,
          74,
          75,
          76,
          77,
          78,
          79,
          80,
          81,
          82,
          83,
          84,
          85,
          86,
          87,
          88,
          89,
          90,
          91,
          92,
          93,
          94,
          95,
          96,
          97,
          98,
          99,
          100,
          101,
          102,
          103,
          104,
          105,
          106,
          107,
          108,
          109,
          110,
          111,
          112,
          113,
          114,
          115,
          116,
          117,
          118,
          119,
          120,
          121,
          122,
          123,
          124,
          125,
          126,
          127,
          128,
          129,
          130,
          131,
          132,
          133,
          134,
          135,
          136,
          137,
          138,
          139,
          140,
          141,
          142,
          143,
          144,
          145,
          146,
          147,
          148,
          149,
          150,
          151,
          152,
          153,
          154,
          155,
          156,
          157,
          158,
          159,
          160,
          161,
          162,
          163,
          164
        ],
        "WindowCenter": [
          953.0,
          953.0,
          953.0,
          953.0,
          953.0,
          952.0,
          952.0,
          953.0,
          954.0,
          954.0,
          953.0,
          953.0,
          953.0,
          952.0,
          952.0,
          952.0,
          953.0,
          953.0,
          953.0,
          953.0,
          952.0,
          952.0,
          952.0,
          952.0,
          952.0,
          952.0,
          952.0,
          953.0,
          954.0,
          953.0,
          952.0,
          952.0,
          952.0,
          952.0,
          951.0,
          951.0,
          951.0,
          952.0,
          951.0,
          952.0,
          952.0,
          953.0,
          953.0,
          952.0,
          952.0,
          950.0,
          952.0,
          953.0,
          952.0,
          951.0,
          952.0,
          953.0,
          953.0,
          952.0,
          951.0,
          951.0,
          952.0,
          952.0,
          951.0,
          951.0,
          952.0,
          953.0,
          953.0,
          952.0,
          952.0,
          952.0,
          951.0,
          952.0,
          952.0,
          951.0,
          951.0,
          952.0,
          952.0,
          951.0,
          951.0,
          950.0,
          950.0,
          950.0,
          951.0,
          951.0,
          952.0,
          951.0,
          951.0,
          951.0,
          952.0,
          951.0,
          951.0,
          950.0,
          951.0,
          951.0,
          950.0,
          949.0,
          950.0,
          950.0,
          951.0,
          951.0,
          950.0,
          950.0,
          951.0,
          951.0,
          950.0,
          950.0,
          952.0,
          952.0,
          952.0,
          951.0,
          951.0,
          953.0,
          952.0,
          951.0,
          949.0,
          950.0,
          951.0,
          950.0,
          950.0,
          951.0,
          951.0,
          951.0,
          950.0,
          949.0,
          949.0,
          948.0,
          948.0,
          950.0,
          950.0,
          950.0,
          950.0,
          950.0,
          950.0,
          951.0,
          950.0,
          950.0,
          950.0,
          949.0,
          949.0,
          949.0,
          949.0,
          950.0,
          950.0,
          950.0,
          950.0,
          950.0,
          951.0,
          951.0,
          951.0,
          951.0,
          951.0,
          951.0,
          951.0,
          951.0,
          951.0,
          951.0,
          950.0,
          950.0,
          951.0,
          950.0,
          950.0,
          950.0,
          951.0,
          949.0,
          950.0,
          951.0,
          951.0,
          951.0
        ],
        "WindowWidth": [
          2553.0,
          2554.0,
          2555.0,
          2555.0,
          2554.0,
          2551.0,
          2557.0,
          2566.0,
          2568.0,
          2562.0,
          2558.0,
          2560.0,
          2558.0,
          2555.0,
          2557.0,
          2559.0,
          2563.0,
          2563.0,
          2558.0,
          2553.0,
          2552.0,
          2552.0,
          2557.0,
          2559.0,
          2556.0,
          2554.0,
          2559.0,
          2565.0,
          2562.0,
          2554.0,
          2550.0,
          2553.0,
          2557.0,
          2554.0,
          2551.0,
          2554.0,
          2564.0,
          2562.0,
          2554.0,
          2552.0,
          2562.0,
          2570.0,
          2566.0,
          2556.0,
          2547.0,
          2550.0,
          2558.0,
          2556.0,
          2551.0,
          2548.0,
          2549.0,
          2558.0,
          2559.0,
          2550.0,
          2546.0,
          2551.0,
          2556.0,
          2554.0,
          2550.0,
          2550.0,
          2556.0,
          2561.0,
          2558.0,
          2552.0,
          2549.0,
          2551.0,
          2558.0,
          2561.0,
          2559.0,
          2557.0,
          2557.0,
          2558.0,
          2552.0,
          2551.0,
          2554.0,
          2551.0,
          2551.0,
          2552.0,
          2559.0,
          2558.0,
          2553.0,
          2548.0,
          2550.0,
          2555.0,
          2554.0,
          2547.0,
          2541.0,
          2544.0,
          2551.0,
          2548.0,
          2540.0,
          2536.0,
          2540.0,
          2546.0,
          2551.0,
          2549.0,
          2546.0,
          2551.0,
          2553.0,
          2548.0,
          2547.0,
          2556.0,
          2564.0,
          2559.0,
          2553.0,
          2553.0,
          2558.0,
          2562.0,
          2555.0,
          2544.0,
          2544.0,
          2552.0,
          2553.0,
          2548.0,
          2548.0,
          2553.0,
          2555.0,
          2554.0,
          2547.0,
          2535.0,
          2529.0,
          2533.0,
          2538.0,
          2538.0,
          2544.0,
          2546.0,
          2544.0,
          2543.0,
          2547.0,
          2553.0,
          2556.0,
          2552.0,
          2548.0,
          2546.0,
          2546.0,
          2547.0,
          2549.0,
