{
  "aor": 0.0024289024390243903,
  "aqi": 0.0042514448780487804,
  "bids_meta": {
    "AcquisitionMatrixPE": 96,
    "AcquisitionNumber": 1,
    "AcquisitionTime": "14:25:0.682500",
    "BandwidthPerPixelPhaseEncode": 52.083,
    "BaseResolution": 96,
    "BodyPartExamined": "HEAD",
    "ConversionSoftware": "dcm2niix",
    "ConversionSoftwareVersion": "v1.0.20180622 GCC6.3.0",
    "DerivedVendorReportedEchoSpacing": 0.000600004,
    "DeviceSerialNumber": "18926",
    "DwellTime": 2.6e-06,
    "EchoTime": 0.025,
    "EffectiveEchoSpacing": 0.000200001,
    "FlipAngle": 50,
    "ImageOrientationPatientDICOM": [
      0.999992,
      0.00067012,
      0.00404905,
      2.11009e-10,
      0.98658,
      -0.16328
    ],
    "ImageType": [
      "ORIGINAL",
      "PRIMARY",
      "M",
      "ND",
      "ECHO",
      "00",
      "MOSAIC"
    ],
    "InPlanePhaseEncodingDirectionDICOM": "ROW",
    "InstitutionName": "NIMH",
    "InstitutionalDepartmentName": "Department",
    "MRAcquisitionType": "2D",
    "MagneticFieldStrength": 6.98,
    "Manufacturer": "Siemens",
    "ManufacturersModelName": "Investigational_Device_7T",
    "Modality": "MR",
    "ParallelReductionFactorInPlane": 3,
    "PartialFourier": 1,
    "PatientPosition": "HFS",
    "PercentPhaseFOV": 100,
    "PhaseEncodingDirection": "i",
    "PhaseEncodingSteps": 94,
    "PhaseResolution": 1,
    "PixelBandwidth": 2003,
    "ProcedureStepDescription": "UserProtocols_gonzalez",
    "ProtocolName": "NIH_EPI_2.0iso_TR2_Run11",
    "PulseSequenceDetails": "%CustomerSeq%_inati_nih_epi",
    "ReceiveCoilName": "32Ch_Head_7T",
    "ReconMatrixPE": 96,
    "RepetitionTime": 2,
    "SAR": 0.0803487,
    "ScanningSequence": "EP",
    "SequenceName": "epfid2d1_96",
    "SequenceVariant": "SK",
    "SeriesDescription": "NIH_EPI_2.0iso_TR2_Run11",
    "SeriesNumber": 15,
    "ShimSetting": [
      -83,
      276,
      1233,
      1967,
      -35,
      518,
      401,
      -253
    ],
    "SliceThickness": 2,
    "SliceTiming": [
      1.005,
      0,
      1.0425,
      0.0375,
      1.08,
      0.075,
      1.1175,
      0.1125,
      1.1525,
      0.15,
      1.19,
      0.1875,
      1.2275,
      0.225,
      1.265,
      0.26,
      1.3025,
      0.2975,
      1.34,
      0.335,
      1.3775,
      0.3725,
      1.4125,
      0.41,
      1.45,
      0.4475,
      1.4875,
      0.485,
      1.525,
      0.5225,
      1.5625,
      0.5575,
      1.6,
      0.595,
      1.6375,
      0.6325,
      1.675,
      0.67,
      1.71,
      0.7075,
      1.7475,
      0.745,
      1.785,
      0.7825,
      1.8225,
      0.82,
      1.86,
      0.855,
      1.8975,
      0.8925,
      1.935,
      0.93,
      1.9725,
      0.9675
    ],
    "SoftwareVersions": "syngo_MR_B17",
    "SpacingBetweenSlices": 2,
    "StationName": "FMRIFD7T",
    "TaskName": "FullFovNoAttentionTask",
    "TotalReadoutTime": 0.0190001,
    "TxRefAmp": 282,
    "dataset": "ds001555",
    "dcmmeta_affine": [
      [
        -1.9999831914901733,
        4.2201880878778297e-10,
        0.008208253420889378,
        95.76705169677734
      ],
      [
        -0.0013402394251897931,
        1.973159670829773,
        -0.32655632495880127,
        -64.46756744384766
      ],
      [
        0.008098097518086433,
        0.32655906677246094,
        1.9731431007385254,
        -46.29322052001953
      ],
      [
        0.0,
        0.0,
        0.0,
        1.0
      ]
    ],
    "dcmmeta_reorient_transform": [
      [
        0.0,
        -1.0,
        0.0,
        95.0
      ],
      [
        1.0,
        0.0,
        0.0,
        0.0
      ],
      [
        0.0,
        0.0,
        1.0,
        0.0
      ],
      [
        0.0,
        0.0,
        0.0,
        1.0
      ]
    ],
    "dcmmeta_shape": [
      96,
      96,
      54,
      164
    ],
    "dcmmeta_slice_dim": 2,
    "dcmmeta_version": 0.6,
    "global": {
      "const": {
        "AcquisitionMatrix": [
          0,
          96,
          96,
          0
        ],
        "AngioFlag": "N",
        "BitsAllocated": 16,
        "BitsStored": 12,
        "BodyPartExamined": "HEAD",
        "Columns": 768,
        "EchoNumbers": 1,
        "EchoTime": 25.0,
        "EchoTrainLength": 1,
        "FlipAngle": 50.0,
        "HighBit": 11,
        "ImageOrientationPatient": [
          0.99999157803662,
          0.00067011969073,
          0.00404904870684,
          2.110094e-10,
          0.98657984636313,
          -0.1632795356133
        ],
        "ImagePositionPatient": [
          -767.761392775,
          -786.41458365531,
          91.732777677076
        ],
        "ImageType": [
          "ORIGINAL",
          "PRIMARY",
          "M",
          "ND",
          "ECHO_00",
          "MOSAIC"
        ],
        "ImagedNucleus": "1H",
        "ImagingFrequency": 297.205152,
        "InPlanePhaseEncodingDirection": "ROW",
        "LargestImagePixelValue": 4095,
        "MRAcquisitionType": "2D",
        "MagneticFieldStrength": 6.98,
        "Manufacturer": "SIEMENS",
        "ManufacturerModelName": "Investigational_Device_7T",
        "Modality": "MR",
        "NumberOfAverages": 1.0,
        "NumberOfPhaseEncodingSteps": 94,
        "PercentPhaseFieldOfView": 100.0,
        "PercentSampling": 100.0,
        "PerformedProcedureStepStartTime": "125519.175000",
        "PhotometricInterpretation": "MONOCHROME2",
        "PixelBandwidth": 2003.0,
        "PixelRepresentation": 0,
        "PixelSpacing": [
          2.0,
          2.0
        ],
        "PositionReferenceIndicator": "",
        "ProtocolName": "NIH_EPI_2.0iso_TR2_Run11",
        "RepetitionTime": 2000.0,
        "Rows": 768,
        "SAR": 0.08034873613096,
        "SamplesPerPixel": 1,
        "ScanningSequence": "EP",
        "SequenceName": "epfid2d1_96",
        "SequenceVariant": "SK",
        "SeriesDescription": "NIH_EPI_2.0iso_TR2_Run11",
        "SeriesNumber": 15,
        "SliceLocation": -34.752389070505,
        "SliceThickness": 2.0,
        "SmallestImagePixelValue": 0,
        "SoftwareVersions": "syngo MR B17",
        "SpacingBetweenSlices": 2.0000000154846,
        "TransmitCoilName": "32Ch_Head_7T",
        "VariableFlipAngleFlag": "N",
        "WindowCenterWidthExplanation": "Algo1",
        "dBdt": 0.0
      },
      "slices": {}
    },
    "modality": "bold",
    "run_id": 12,
    "session_id": "03",
    "subject_id": "002",
    "task_id": "FullFovNoAttentionTask",
    "time": {
      "samples": {
        "AcquisitionNumber": [
          1,
          2,
          3,
          4,
          5,
          6,
          7,
          8,
          9,
          10,
          11,
          12,
          13,
          14,
          15,
          16,
          17,
          18,
          19,
          20,
          21,
          22,
          23,
          24,
          25,
          26,
          27,
          28,
          29,
          30,
          31,
          32,
          33,
          34,
          35,
          36,
          37,
          38,
          39,
          40,
          41,
          42,
          43,
          44,
          45,
          46,
          47,
          48,
          49,
          50,
          51,
          52,
          53,
          54,
          55,
          56,
          57,
          58,
          59,
          60,
          61,
          62,
          63,
          64,
          65,
          66,
          67,
          68,
          69,
          70,
          71,
          72,
          73,
          74,
          75,
          76,
          77,
          78,
          79,
          80,
          81,
          82,
          83,
          84,
          85,
          86,
          87,
          88,
          89,
          90,
          91,
          92,
          93,
          94,
          95,
          96,
          97,
          98,
          99,
          100,
          101,
          102,
          103,
          104,
          105,
          106,
          107,
          108,
          109,
          110,
          111,
          112,
          113,
          114,
          115,
          116,
          117,
          118,
          119,
          120,
          121,
          122,
          123,
          124,
          125,
          126,
          127,
          128,
          129,
          130,
          131,
          132,
          133,
          134,
          135,
          136,
          137,
          138,
          139,
          140,
          141,
          142,
          143,
          144,
          145,
          146,
          147,
          148,
          149,
          150,
          151,
          152,
          153,
          154,
          155,
          156,
          157,
          158,
          159,
          160,
          161,
          162,
          163,
          164
        ],
        "AcquisitionTime": [
          "142500.682500",
          "142504.697500",
          "142506.707500",
          "142508.715000",
          "142510.722500",
          "142512.730000",
          "142514.737500",
          "142516.747500",
          "142518.755000",
          "142520.762500",
          "142522.770000",
          "142524.777500",
          "142526.787500",
          "142528.795000",
          "142530.802500",
          "142532.810000",
          "142534.820000",
          "142536.827500",
          "142538.835000",
          "142540.842500",
          "142542.850000",
          "142544.860000",
          "142546.867500",
          "142548.875000",
          "142550.882500",
          "142552.890000",
          "142554.900000",
          "142556.907500",
          "142558.915000",
          "142600.922500",
          "142602.930000",
          "142604.940000",
          "142606.947500",
          "142608.955000",
          "142610.962500",
          "142612.972500",
          "142614.980000",
          "142616.987500",
          "142618.995000",
          "142621.002500",
          "142623.012500",
          "142625.020000",
          "142627.027500",
          "142629.035000",
          "142631.042500",
          "142633.052500",
          "142635.060000",
          "142637.067500",
          "142639.075000",
          "142641.085000",
          "142643.092500",
          "142645.100000",
          "142647.107500",
          "142649.115000",
          "142651.125000",
          "142653.132500",
          "142655.140000",
          "142657.147500",
          "142659.155000",
          "142701.165000",
          "142703.172500",
          "142705.180000",
          "142707.187500",
          "142709.197500",
          "142711.205000",
          "142713.212500",
          "142715.220000",
          "142717.227500",
          "142719.237500",
          "142721.245000",
          "142723.252500",
          "142725.260000",
          "142727.267500",
          "142729.277500",
          "142731.285000",
          "142733.292500",
          "142735.300000",
          "142737.307500",
          "142739.317500",
          "142741.325000",
          "142743.332500",
          "142745.340000",
          "142747.350000",
          "142749.357500",
          "142751.365000",
          "142753.372500",
          "142755.380000",
          "142757.390000",
          "142759.397500",
          "142801.405000",
          "142803.412500",
          "142805.420000",
          "142807.430000",
          "142809.437500",
          "142811.445000",
          "142813.452500",
          "142815.462500",
          "142817.470000",
          "142819.477500",
          "142821.485000",
          "142823.492500",
          "142825.502500",
          "142827.510000",
          "142829.517500",
          "142831.525000",
          "142833.532500",
          "142835.542500",
          "142837.550000",
          "142839.557500",
          "142841.565000",
          "142843.575000",
          "142845.582500",
          "142847.590000",
          "142849.597500",
          "142851.605000",
          "142853.615000",
          "142855.622500",
          "142857.630000",
          "142859.637500",
          "142901.645000",
          "142903.655000",
          "142905.662500",
          "142907.670000",
          "142909.677500",
          "142911.685000",
          "142913.695000",
          "142915.702500",
          "142917.710000",
          "142919.717500",
          "142921.727500",
          "142923.735000",
          "142925.742500",
          "142927.750000",
          "142929.757500",
          "142931.767500",
          "142933.775000",
          "142935.782500",
          "142937.790000",
          "142939.797500",
          "142941.807500",
          "142943.815000",
          "142945.822500",
          "142947.830000",
          "142949.840000",
          "142951.847500",
          "142953.855000",
          "142955.862500",
          "142957.870000",
          "142959.880000",
          "143001.887500",
          "143003.895000",
          "143005.902500",
          "143007.910000",
          "143009.920000",
          "143011.927500",
          "143013.935000",
          "143015.942500",
          "143017.952500",
          "143019.960000",
          "143021.967500",
          "143023.975000",
          "143025.982500",
          "143027.992500",
          "143030.000000"
        ],
        "ContentTime": [
          "142558.550000",
          "142558.550000",
          "142558.550000",
          "142558.550000",
          "142558.550000",
          "142558.566000",
          "142558.566000",
          "142558.566000",
          "142558.566000",
          "142558.566000",
          "142558.582000",
          "142558.582000",
          "142558.582000",
          "142558.582000",
          "142558.582000",
          "142558.597000",
          "142558.597000",
          "142558.597000",
          "142558.597000",
          "142558.597000",
          "142558.597000",
          "142558.613000",
          "142558.613000",
          "142558.613000",
          "142558.613000",
          "142558.613000",
          "142558.613000",
          "142558.628000",
          "142638.535000",
          "142638.535000",
          "142638.535000",
          "142638.550000",
          "142638.550000",
          "142638.550000",
          "142638.550000",
          "142638.550000",
          "142638.566000",
          "142638.566000",
          "142638.566000",
          "142638.566000",
          "142638.566000",
          "142638.566000",
          "142638.582000",
          "142638.582000",
          "142638.582000",
          "142638.582000",
          "142638.582000",
          "142638.582000",
          "142718.535000",
          "142718.535000",
          "142718.535000",
          "142718.550000",
          "142718.550000",
          "142718.550000",
          "142718.566000",
          "142718.566000",
          "142718.566000",
          "142718.566000",
          "142718.566000",
          "142718.566000",
          "142718.566000",
          "142718.582000",
          "142718.582000",
          "142718.582000",
          "142718.582000",
          "142718.582000",
          "142718.597000",
          "142718.597000",
          "142758.535000",
          "142758.535000",
          "142758.535000",
          "142758.550000",
          "142758.550000",
          "142758.550000",
          "142758.550000",
          "142758.550000",
          "142758.566000",
          "142758.566000",
          "142758.566000",
          "142758.566000",
          "142758.566000",
          "142758.566000",
          "142758.582000",
          "142758.582000",
          "142758.582000",
          "142758.582000",
          "142758.582000",
          "142758.582000",
          "142838.535000",
          "142838.535000",
          "142838.535000",
          "142838.550000",
          "142838.550000",
          "142838.550000",
          "142838.550000",
          "142838.550000",
          "142838.550000",
          "142838.566000",
          "142838.566000",
          "142838.566000",
          "142838.566000",
          "142838.566000",
          "142838.566000",
          "142838.566000",
          "142838.582000",
          "142838.582000",
          "142838.582000",
          "142838.582000",
          "142918.535000",
          "142918.535000",
          "142918.535000",
          "142918.550000",
          "142918.550000",
          "142918.550000",
          "142918.550000",
          "142918.550000",
          "142918.550000",
          "142918.550000",
          "142918.566000",
          "142918.566000",
          "142918.566000",
          "142918.566000",
          "142918.566000",
          "142918.582000",
          "142918.582000",
          "142918.582000",
          "142918.582000",
          "142918.582000",
          "142958.535000",
          "142958.550000",
          "142958.550000",
          "142958.550000",
          "142958.550000",
          "142958.566000",
          "142958.566000",
          "142958.566000",
          "142958.566000",
          "142958.566000",
          "142958.566000",
          "142958.582000",
          "142958.582000",
          "142958.582000",
          "142958.582000",
          "142958.582000",
          "142958.582000",
          "142958.597000",
          "142958.597000",
          "142958.597000",
          "143030.316000",
          "143030.316000",
          "143030.332000",
          "143030.347000",
          "143030.347000",
          "143030.347000",
          "143030.347000",
          "143030.347000",
          "143030.347000",
          "143030.363000",
          "143030.363000",
          "143030.363000",
          "143030.363000",
          "143030.363000",
          "143030.363000",
          "143030.363000"
        ],
        "InstanceCreationTime": [
          "142558.550000",
          "142558.550000",
          "142558.550000",
          "142558.550000",
          "142558.550000",
          "142558.566000",
          "142558.566000",
          "142558.566000",
          "142558.566000",
          "142558.566000",
          "142558.582000",
          "142558.582000",
          "142558.582000",
          "142558.582000",
          "142558.582000",
          "142558.597000",
          "142558.597000",
          "142558.597000",
          "142558.597000",
          "142558.597000",
          "142558.597000",
          "142558.613000",
          "142558.613000",
          "142558.613000",
          "142558.613000",
          "142558.613000",
          "142558.613000",
          "142558.628000",
          "142638.535000",
          "142638.535000",
          "142638.535000",
          "142638.550000",
          "142638.550000",
          "142638.550000",
          "142638.550000",
          "142638.550000",
          "142638.566000",
          "142638.566000",
          "142638.566000",
          "142638.566000",
          "142638.566000",
          "142638.566000",
          "142638.582000",
          "142638.582000",
          "142638.582000",
          "142638.582000",
          "142638.582000",
          "142638.582000",
          "142718.535000",
          "142718.535000",
          "142718.535000",
          "142718.550000",
          "142718.550000",
          "142718.550000",
          "142718.566000",
          "142718.566000",
          "142718.566000",
          "142718.566000",
          "142718.566000",
          "142718.566000",
          "142718.566000",
          "142718.582000",
          "142718.582000",
          "142718.582000",
          "142718.582000",
          "142718.582000",
          "142718.597000",
          "142718.597000",
          "142758.535000",
          "142758.535000",
          "142758.535000",
          "142758.550000",
          "142758.550000",
          "142758.550000",
          "142758.550000",
          "142758.550000",
          "142758.566000",
          "142758.566000",
          "142758.566000",
          "142758.566000",
          "142758.566000",
          "142758.566000",
          "142758.582000",
          "142758.582000",
          "142758.582000",
          "142758.582000",
          "142758.582000",
          "142758.582000",
          "142838.535000",
          "142838.535000",
          "142838.535000",
          "142838.550000",
          "142838.550000",
          "142838.550000",
          "142838.550000",
          "142838.550000",
          "142838.550000",
          "142838.566000",
          "142838.566000",
          "142838.566000",
          "142838.566000",
          "142838.566000",
          "142838.566000",
          "142838.566000",
          "142838.582000",
          "142838.582000",
          "142838.582000",
          "142838.582000",
          "142918.535000",
          "142918.535000",
          "142918.535000",
          "142918.550000",
          "142918.550000",
          "142918.550000",
          "142918.550000",
          "142918.550000",
          "142918.550000",
          "142918.550000",
          "142918.566000",
          "142918.566000",
          "142918.566000",
          "142918.566000",
          "142918.566000",
          "142918.582000",
          "142918.582000",
          "142918.582000",
          "142918.582000",
          "142918.582000",
          "142958.535000",
          "142958.550000",
          "142958.550000",
          "142958.550000",
          "142958.550000",
          "142958.566000",
          "142958.566000",
          "142958.566000",
          "142958.566000",
          "142958.566000",
          "142958.566000",
          "142958.582000",
          "142958.582000",
          "142958.582000",
          "142958.582000",
          "142958.582000",
          "142958.582000",
          "142958.597000",
          "142958.597000",
          "142958.597000",
          "143030.316000",
          "143030.316000",
          "143030.332000",
          "143030.347000",
          "143030.347000",
          "143030.347000",
          "143030.347000",
          "143030.347000",
          "143030.347000",
          "143030.363000",
          "143030.363000",
          "143030.363000",
          "143030.363000",
          "143030.363000",
          "143030.363000",
          "143030.363000"
        ],
        "InstanceNumber": [
          1,
          2,
          3,
          4,
          5,
          6,
          7,
          8,
          9,
          10,
          11,
          12,
          13,
          14,
          15,
          16,
          17,
          18,
          19,
          20,
          21,
          22,
          23,
          24,
          25,
          26,
          27,
          28,
          29,
          30,
          31,
          32,
          33,
          34,
          35,
          36,
          37,
          38,
          39,
          40,
          41,
          42,
          43,
          44,
          45,
          46,
          47,
          48,
          49,
          50,
          51,
          52,
          53,
          54,
          55,
          56,
          57,
          58,
          59,
          60,
          61,
          62,
          63,
          64,
          65,
          66,
          67,
          68,
          69,
          70,
          71,
          72,
          73,
          74,
          75,
          76,
          77,
          78,
          79,
          80,
          81,
          82,
          83,
          84,
          85,
          86,
          87,
          88,
          89,
          90,
          91,
          92,
          93,
          94,
          95,
          96,
          97,
          98,
          99,
          100,
          101,
          102,
          103,
          104,
          105,
          106,
          107,
          108,
          109,
          110,
          111,
          112,
          113,
          114,
          115,
          116,
          117,
          118,
          119,
          120,
          121,
          122,
          123,
          124,
          125,
          126,
          127,
          128,
          129,
          130,
          131,
          132,
          133,
          134,
          135,
          136,
          137,
          138,
          139,
          140,
          141,
          142,
          143,
          144,
          145,
          146,
          147,
          148,
          149,
          150,
          151,
          152,
          153,
          154,
          155,
          156,
          157,
          158,
          159,
          160,
          161,
          162,
          163,
          164
        ],
        "WindowCenter": [
          1050.0,
          1050.0,
          1050.0,
          1050.0,
          1049.0,
          1048.0,
          1049.0,
          1049.0,
          1047.0,
          1047.0,
          1045.0,
          1044.0,
          1048.0,
          1048.0,
          1045.0,
          1047.0,
          1046.0,
          1048.0,
          1047.0,
          1045.0,
          1048.0,
          1047.0,
          1048.0,
          1049.0,
          1046.0,
          1048.0,
          1046.0,
          1044.0,
          1046.0,
          1045.0,
          1047.0,
          1047.0,
          1046.0,
          1048.0,
          1049.0,
          1046.0,
          1049.0,
          1049.0,
          1047.0,
          1049.0,
          1048.0,
          1047.0,
          1047.0,
          1050.0,
          1050.0,
          1049.0,
          1050.0,
          1049.0,
          1049.0,
          1050.0,
          1048.0,
          1048.0,
          1049.0,
          1052.0,
          1048.0,
          1047.0,
          1050.0,
          1048.0,
          1051.0,
          1052.0,
          1048.0,
          1049.0,
          1049.0,
          1049.0,
          1049.0,
          1051.0,
          1049.0,
          1048.0,
          1050.0,
          1049.0,
          1051.0,
          1052.0,
          1051.0,
          1048.0,
          1048.0,
          1051.0,
          1050.0,
          1051.0,
          1049.0,
          1049.0,
          1050.0,
          1051.0,
          1051.0,
          1049.0,
          1050.0,
          1052.0,
          1053.0,
          1049.0,
          1047.0,
          1049.0,
          1050.0,
          1051.0,
          1051.0,
          1050.0,
          1050.0,
          1049.0,
          1050.0,
          1050.0,
          1049.0,
          1050.0,
          1051.0,
          1051.0,
          1049.0,
          1051.0,
          1050.0,
          1049.0,
          1049.0,
          1049.0,
          1049.0,
          1050.0,
          1050.0,
          1050.0,
          1051.0,
          1051.0,
          1050.0,
          1050.0,
          1052.0,
          1051.0,
          1050.0,
          1051.0,
          1052.0,
          1052.0,
          1050.0,
          1051.0,
          1049.0,
          1050.0,
          1050.0,
          1051.0,
          1052.0,
          1051.0,
          1050.0,
          1052.0,
          1052.0,
          1052.0,
          1051.0,
          1052.0,
          1051.0,
          1052.0,
          1053.0,
          1052.0,
          1053.0,
          1052.0,
          1052.0,
          1051.0,
          1051.0,
          1050.0,
          1052.0,
          1053.0,
          1053.0,
          1051.0,
          1051.0,
          1052.0,
          1053.0,
          1053.0,
          1053.0,
          1051.0,
          1052.0,
          1053.0,
          1054.0,
          1055.0,
          1052.0,
          1052.0,
          1052.0,
          1051.0
        ],
        "WindowWidth": [
          2794.0,
          2801.0,
          2790.0,
          2799.0,
          2791.0,
          2783.0,
          2797.0,
          2795.0,
          2783.0,
          2782.0,
          2776.0,
          2776.0,
          2792.0,
          2786.0,
          2782.0,
          2789.0,
          2784.0,
          2791.0,
          2788.0,
          2779.0,
          2787.0,
          2777.0,
          2785.0,
          2793.0,
          2783.0,
          2793.0,
          2781.0,
          2778.0,
          2781.0,
          2778.0,
          2791.0,
          2787.0,
          2781.0,
          2791.0,
          2785.0,
          2781.0,
          2793.0,
          2789.0,
          2788.0,
          2796.0,
          2789.0,
          2782.0,
          2783.0,
          2800.0,
          2795.0,
          2790.0,
          2798.0,
          2792.0,
          2792.0,
          2795.0,
          2789.0,
          2786.0,
          2797.0,
          2799.0,
          2784.0,
          2786.0,
          2795.0,
          2790.0,
          2800.0,
          2794.0,
          2787.0,
          2788.0,
          2796.0,
          2790.0,
          2788.0,
          2801.0,
          2794.0,
          2787.0,
          2795.0,
          2794.0,
          2798.0,
          2810.0,
          2797.0,
          2786.0,
          2795.0,
          2806.0,
          2796.0,
          2798.0,
          2791.0,
          2792.0,
          2788.0,
          2798.0,
          2787.0,
          2782.0,
          2797.0,
          2805.0,
          2798.0,
          2782.0,
          2778.0,
          2791.0,
          2795.0,
          2792.0,
          2799.0,
          2790.0,
          2793.0,
          2793.0,
          2793.0,
          2795.0,
          2792.0,
          2799.0,
          2797.0,
          2795.0,
          2789.0,
          2796.0,
          2788.0,
          2784.0,
          2791.0,
          2790.0,
          2790.0,
          2796.0,
          2787.0,
          2794.0,
          2796.0,
          2789.0,
          2797.0,
          2794.0,
          2805.0,
          2794.0,
          2790.0,
          2801.0,
          2797.0,
          2801.0,
          2788.0,
          2796.0,
          2793.0,
          2789.0,
          2798.0,
          2792.0,
