{
  "aor": 0.0009905487804878048,
  "aqi": 0.00392695006097561,
  "bids_meta": {
    "AcquisitionMatrixPE": 96,
    "AcquisitionNumber": 1,
    "AcquisitionTime": "13:28:49.587500",
    "BandwidthPerPixelPhaseEncode": 52.083,
    "BaseResolution": 96,
    "BodyPartExamined": "HEAD",
    "ConversionSoftware": "dcm2niix",
    "ConversionSoftwareVersion": "v1.0.20180622 GCC6.3.0",
    "DerivedVendorReportedEchoSpacing": 0.000600004,
    "DeviceSerialNumber": "18926",
    "DwellTime": 2.6e-06,
    "EchoTime": 0.025,
    "EffectiveEchoSpacing": 0.000200001,
    "FlipAngle": 50,
    "ImageOrientationPatientDICOM": [
      0.999992,
      0.00067012,
      0.00404905,
      2.11009e-10,
      0.98658,
      -0.16328
    ],
    "ImageType": [
      "ORIGINAL",
      "PRIMARY",
      "M",
      "ND",
      "ECHO",
      "00",
      "MOSAIC"
    ],
    "InPlanePhaseEncodingDirectionDICOM": "ROW",
    "InstitutionName": "NIMH",
    "InstitutionalDepartmentName": "Department",
    "MRAcquisitionType": "2D",
    "MagneticFieldStrength": 6.98,
    "Manufacturer": "Siemens",
    "ManufacturersModelName": "Investigational_Device_7T",
    "Modality": "MR",
    "ParallelReductionFactorInPlane": 3,
    "PartialFourier": 1,
    "PatientPosition": "HFS",
    "PercentPhaseFOV": 100,
    "PhaseEncodingDirection": "i",
    "PhaseEncodingSteps": 94,
    "PhaseResolution": 1,
    "PixelBandwidth": 2003,
    "ProcedureStepDescription": "UserProtocols_gonzalez",
    "ProtocolName": "NIH_EPI_2.0iso_TR2_Run02",
    "PulseSequenceDetails": "%CustomerSeq%_inati_nih_epi",
    "ReceiveCoilName": "32Ch_Head_7T",
    "ReconMatrixPE": 96,
    "RepetitionTime": 2,
    "SAR": 0.0803487,
    "ScanningSequence": "EP",
    "SequenceName": "epfid2d1_96",
    "SequenceVariant": "SK",
    "SeriesDescription": "NIH_EPI_2.0iso_TR2_Run02",
    "SeriesNumber": 6,
    "ShimSetting": [
      -83,
      276,
      1233,
      1967,
      -35,
      518,
      401,
      -253
    ],
    "SliceThickness": 2,
    "SliceTiming": [
      1.005,
      0,
      1.04,
      0.0375,
      1.0775,
      0.075,
      1.115,
      0.1125,
      1.1525,
      0.15,
      1.19,
      0.185,
      1.2275,
      0.2225,
      1.265,
      0.26,
      1.3025,
      0.2975,
      1.3375,
      0.335,
      1.375,
      0.3725,
      1.4125,
      0.41,
      1.45,
      0.445,
      1.4875,
      0.4825,
      1.525,
      0.52,
      1.5625,
      0.5575,
      1.5975,
      0.595,
      1.635,
      0.6325,
      1.6725,
      0.67,
      1.71,
      0.7075,
      1.7475,
      0.7425,
      1.785,
      0.78,
      1.8225,
      0.8175,
      1.86,
      0.855,
      1.895,
      0.8925,
      1.9325,
      0.93,
      1.97,
      0.9675
    ],
    "SoftwareVersions": "syngo_MR_B17",
    "SpacingBetweenSlices": 2,
    "StationName": "FMRIFD7T",
    "TaskName": "FullFovNoAttentionTask",
    "TotalReadoutTime": 0.0190001,
    "TxRefAmp": 282,
    "dataset": "ds001555",
    "dcmmeta_affine": [
      [
        -1.9999831914901733,
        4.2201880878778297e-10,
        0.008208253420889378,
        95.76705169677734
      ],
      [
        -0.0013402394251897931,
        1.973159670829773,
        -0.32655632495880127,
        -64.46756744384766
      ],
      [
        0.008098097518086433,
        0.32655906677246094,
        1.9731431007385254,
        -46.29322052001953
      ],
      [
        0.0,
        0.0,
        0.0,
        1.0
      ]
    ],
    "dcmmeta_reorient_transform": [
      [
        0.0,
        -1.0,
        0.0,
        95.0
      ],
      [
        1.0,
        0.0,
        0.0,
        0.0
      ],
      [
        0.0,
        0.0,
        1.0,
        0.0
      ],
      [
        0.0,
        0.0,
        0.0,
        1.0
      ]
    ],
    "dcmmeta_shape": [
      96,
      96,
      54,
      164
    ],
    "dcmmeta_slice_dim": 2,
    "dcmmeta_version": 0.6,
    "global": {
      "const": {
        "AcquisitionMatrix": [
          0,
          96,
          96,
          0
        ],
        "AngioFlag": "N",
        "BitsAllocated": 16,
        "BitsStored": 12,
        "BodyPartExamined": "HEAD",
        "Columns": 768,
        "EchoNumbers": 1,
        "EchoTime": 25.0,
        "EchoTrainLength": 1,
        "FlipAngle": 50.0,
        "HighBit": 11,
        "ImageOrientationPatient": [
          0.99999157803662,
          0.00067011969073,
          0.00404904870684,
          2.110094e-10,
          0.98657984636313,
          -0.1632795356133
        ],
        "ImagePositionPatient": [
          -767.761392775,
          -786.41458365531,
          91.732777677076
        ],
        "ImageType": [
          "ORIGINAL",
          "PRIMARY",
          "M",
          "ND",
          "ECHO_00",
          "MOSAIC"
        ],
        "ImagedNucleus": "1H",
        "ImagingFrequency": 297.204994,
        "InPlanePhaseEncodingDirection": "ROW",
        "LargestImagePixelValue": 4095,
        "MRAcquisitionType": "2D",
        "MagneticFieldStrength": 6.98,
        "Manufacturer": "SIEMENS",
        "ManufacturerModelName": "Investigational_Device_7T",
        "Modality": "MR",
        "NumberOfAverages": 1.0,
        "NumberOfPhaseEncodingSteps": 94,
        "PercentPhaseFieldOfView": 100.0,
        "PercentSampling": 100.0,
        "PerformedProcedureStepStartTime": "125519.175000",
        "PhotometricInterpretation": "MONOCHROME2",
        "PixelBandwidth": 2003.0,
        "PixelRepresentation": 0,
        "PixelSpacing": [
          2.0,
          2.0
        ],
        "PositionReferenceIndicator": "",
        "ProtocolName": "NIH_EPI_2.0iso_TR2_Run02",
        "RepetitionTime": 2000.0,
        "Rows": 768,
        "SAR": 0.08034873613096,
        "SamplesPerPixel": 1,
        "ScanningSequence": "EP",
        "SequenceName": "epfid2d1_96",
        "SequenceVariant": "SK",
        "SeriesDescription": "NIH_EPI_2.0iso_TR2_Run02",
        "SeriesNumber": 6,
        "SliceLocation": -34.752389070505,
        "SliceThickness": 2.0,
        "SmallestImagePixelValue": 0,
        "SoftwareVersions": "syngo MR B17",
        "SpacingBetweenSlices": 2.0000000154846,
        "TransmitCoilName": "32Ch_Head_7T",
        "VariableFlipAngleFlag": "N",
        "WindowCenterWidthExplanation": "Algo1",
        "dBdt": 0.0
      },
      "slices": {}
    },
    "modality": "bold",
    "run_id": 3,
    "session_id": "03",
    "subject_id": "002",
    "task_id": "FullFovNoAttentionTask",
    "time": {
      "samples": {
        "AcquisitionNumber": [
          1,
          2,
          3,
          4,
          5,
          6,
          7,
          8,
          9,
          10,
          11,
          12,
          13,
          14,
          15,
          16,
          17,
          18,
          19,
          20,
          21,
          22,
          23,
          24,
          25,
          26,
          27,
          28,
          29,
          30,
          31,
          32,
          33,
          34,
          35,
          36,
          37,
          38,
          39,
          40,
          41,
          42,
          43,
          44,
          45,
          46,
          47,
          48,
          49,
          50,
          51,
          52,
          53,
          54,
          55,
          56,
          57,
          58,
          59,
          60,
          61,
          62,
          63,
          64,
          65,
          66,
          67,
          68,
          69,
          70,
          71,
          72,
          73,
          74,
          75,
          76,
          77,
          78,
          79,
          80,
          81,
          82,
          83,
          84,
          85,
          86,
          87,
          88,
          89,
          90,
          91,
          92,
          93,
          94,
          95,
          96,
          97,
          98,
          99,
          100,
          101,
          102,
          103,
          104,
          105,
          106,
          107,
          108,
          109,
          110,
          111,
          112,
          113,
          114,
          115,
          116,
          117,
          118,
          119,
          120,
          121,
          122,
          123,
          124,
          125,
          126,
          127,
          128,
          129,
          130,
          131,
          132,
          133,
          134,
          135,
          136,
          137,
          138,
          139,
          140,
          141,
          142,
          143,
          144,
          145,
          146,
          147,
          148,
          149,
          150,
          151,
          152,
          153,
          154,
          155,
          156,
          157,
          158,
          159,
          160,
          161,
          162,
          163,
          164
        ],
        "AcquisitionTime": [
          "132849.587500",
          "132853.602500",
          "132855.610000",
          "132857.617500",
          "132859.627500",
          "132901.635000",
          "132903.642500",
          "132905.650000",
          "132907.657500",
          "132909.667500",
          "132911.675000",
          "132913.682500",
          "132915.690000",
          "132917.700000",
          "132919.707500",
          "132921.715000",
          "132923.722500",
          "132925.730000",
          "132927.740000",
          "132929.747500",
          "132931.755000",
          "132933.762500",
          "132935.770000",
          "132937.780000",
          "132939.787500",
          "132941.795000",
          "132943.802500",
          "132945.812500",
          "132947.820000",
          "132949.827500",
          "132951.835000",
          "132953.842500",
          "132955.852500",
          "132957.860000",
          "132959.867500",
          "133001.875000",
          "133003.882500",
          "133005.892500",
          "133007.900000",
          "133009.907500",
          "133011.915000",
          "133013.922500",
          "133015.932500",
          "133017.940000",
          "133019.947500",
          "133021.955000",
          "133023.965000",
          "133025.972500",
          "133027.980000",
          "133029.987500",
          "133031.995000",
          "133034.005000",
          "133036.012500",
          "133038.020000",
          "133040.027500",
          "133042.035000",
          "133044.045000",
          "133046.052500",
          "133048.060000",
          "133050.067500",
          "133052.077500",
          "133054.085000",
          "133056.092500",
          "133058.100000",
          "133100.107500",
          "133102.117500",
          "133104.125000",
          "133106.132500",
          "133108.140000",
          "133110.147500",
          "133112.157500",
          "133114.165000",
          "133116.172500",
          "133118.180000",
          "133120.190000",
          "133122.197500",
          "133124.205000",
          "133126.212500",
          "133128.220000",
          "133130.230000",
          "133132.237500",
          "133134.245000",
          "133136.252500",
          "133138.260000",
          "133140.270000",
          "133142.277500",
          "133144.285000",
          "133146.292500",
          "133148.300000",
          "133150.310000",
          "133152.317500",
          "133154.325000",
          "133156.332500",
          "133158.342500",
          "133200.350000",
          "133202.357500",
          "133204.365000",
          "133206.372500",
          "133208.382500",
          "133210.390000",
          "133212.397500",
          "133214.405000",
          "133216.412500",
          "133218.422500",
          "133220.430000",
          "133222.437500",
          "133224.445000",
          "133226.455000",
          "133228.462500",
          "133230.470000",
          "133232.477500",
          "133234.485000",
          "133236.495000",
          "133238.502500",
          "133240.510000",
          "133242.517500",
          "133244.525000",
          "133246.535000",
          "133248.542500",
          "133250.550000",
          "133252.557500",
          "133254.567500",
          "133256.575000",
          "133258.582500",
          "133300.590000",
          "133302.597500",
          "133304.607500",
          "133306.615000",
          "133308.622500",
          "133310.630000",
          "133312.637500",
          "133314.647500",
          "133316.655000",
          "133318.662500",
          "133320.670000",
          "133322.677500",
          "133324.687500",
          "133326.695000",
          "133328.702500",
          "133330.710000",
          "133332.720000",
          "133334.727500",
          "133336.735000",
          "133338.742500",
          "133340.750000",
          "133342.760000",
          "133344.767500",
          "133346.775000",
          "133348.782500",
          "133350.790000",
          "133352.800000",
          "133354.807500",
          "133356.815000",
          "133358.822500",
          "133400.832500",
          "133402.840000",
          "133404.847500",
          "133406.855000",
          "133408.862500",
          "133410.872500",
          "133412.880000",
          "133414.887500",
          "133416.895000",
          "133418.902500"
        ],
        "ContentTime": [
          "132938.550000",
          "132938.550000",
          "132938.566000",
          "132938.566000",
          "132938.566000",
          "132938.566000",
          "132938.582000",
          "132938.582000",
          "132938.582000",
          "132938.582000",
          "132938.597000",
          "132938.597000",
          "132938.597000",
          "132938.597000",
          "132938.613000",
          "132938.613000",
          "132938.628000",
          "132938.628000",
          "132938.628000",
          "132938.628000",
          "132938.628000",
          "132938.644000",
          "132938.644000",
          "132958.535000",
          "132958.535000",
          "132958.535000",
          "132958.535000",
          "132958.550000",
          "132958.550000",
          "132958.550000",
          "132958.550000",
          "132958.550000",
          "132958.550000",
          "133038.535000",
          "133038.535000",
          "133038.535000",
          "133038.550000",
          "133038.550000",
          "133038.550000",
          "133038.550000",
          "133038.550000",
          "133038.550000",
          "133038.566000",
          "133038.566000",
          "133038.566000",
          "133038.566000",
          "133038.582000",
          "133038.582000",
          "133038.582000",
          "133038.582000",
          "133038.582000",
          "133038.597000",
          "133038.597000",
          "133118.535000",
          "133118.535000",
          "133118.535000",
          "133118.550000",
          "133118.550000",
          "133118.550000",
          "133118.550000",
          "133118.550000",
          "133118.550000",
          "133118.550000",
          "133118.566000",
          "133118.566000",
          "133118.566000",
          "133118.566000",
          "133118.566000",
          "133118.566000",
          "133118.566000",
          "133118.582000",
          "133118.582000",
          "133118.582000",
          "133158.535000",
          "133158.535000",
          "133158.550000",
          "133158.550000",
          "133158.550000",
          "133158.550000",
          "133158.550000",
          "133158.566000",
          "133158.566000",
          "133158.566000",
          "133158.566000",
          "133158.566000",
          "133158.566000",
          "133158.566000",
          "133158.582000",
          "133158.582000",
          "133158.582000",
          "133158.582000",
          "133158.582000",
          "133158.582000",
          "133238.535000",
          "133238.535000",
          "133238.535000",
          "133238.550000",
          "133238.550000",
          "133238.550000",
          "133238.550000",
          "133238.550000",
          "133238.566000",
          "133238.566000",
          "133238.566000",
          "133238.566000",
          "133238.566000",
          "133238.582000",
          "133238.582000",
          "133238.582000",
          "133238.582000",
          "133238.582000",
          "133238.582000",
          "133238.582000",
          "133318.535000",
          "133318.535000",
          "133318.550000",
          "133318.550000",
          "133318.550000",
          "133318.550000",
          "133318.566000",
          "133318.566000",
          "133318.566000",
          "133318.566000",
          "133318.566000",
          "133318.566000",
          "133318.582000",
          "133318.582000",
          "133318.582000",
          "133318.582000",
          "133318.582000",
          "133318.597000",
          "133318.597000",
          "133318.597000",
          "133358.535000",
          "133358.535000",
          "133358.550000",
          "133358.550000",
          "133358.550000",
          "133358.550000",
          "133358.550000",
          "133358.550000",
          "133358.566000",
          "133358.566000",
          "133358.566000",
          "133358.566000",
          "133358.566000",
          "133358.566000",
          "133358.582000",
          "133358.582000",
          "133358.582000",
          "133358.582000",
          "133358.582000",
          "133358.582000",
          "133419.269000",
          "133419.269000",
          "133419.269000",
          "133419.269000",
          "133419.269000",
          "133419.285000",
          "133419.285000",
          "133419.285000",
          "133419.300000",
          "133419.300000",
          "133419.316000"
        ],
        "InstanceCreationTime": [
          "132938.550000",
          "132938.550000",
          "132938.566000",
          "132938.566000",
          "132938.566000",
          "132938.566000",
          "132938.582000",
          "132938.582000",
          "132938.582000",
          "132938.582000",
          "132938.597000",
          "132938.597000",
          "132938.597000",
          "132938.597000",
          "132938.613000",
          "132938.613000",
          "132938.628000",
          "132938.628000",
          "132938.628000",
          "132938.628000",
          "132938.628000",
          "132938.644000",
          "132938.644000",
          "132958.535000",
          "132958.535000",
          "132958.535000",
          "132958.535000",
          "132958.550000",
          "132958.550000",
          "132958.550000",
          "132958.550000",
          "132958.550000",
          "132958.550000",
          "133038.535000",
          "133038.535000",
          "133038.535000",
          "133038.550000",
          "133038.550000",
          "133038.550000",
          "133038.550000",
          "133038.550000",
          "133038.550000",
          "133038.566000",
          "133038.566000",
          "133038.566000",
          "133038.566000",
          "133038.582000",
          "133038.582000",
          "133038.582000",
          "133038.582000",
          "133038.582000",
          "133038.597000",
          "133038.597000",
          "133118.535000",
          "133118.535000",
          "133118.535000",
          "133118.550000",
          "133118.550000",
          "133118.550000",
          "133118.550000",
          "133118.550000",
          "133118.550000",
          "133118.550000",
          "133118.566000",
          "133118.566000",
          "133118.566000",
          "133118.566000",
          "133118.566000",
          "133118.566000",
          "133118.566000",
          "133118.582000",
          "133118.582000",
          "133118.582000",
          "133158.535000",
          "133158.535000",
          "133158.550000",
          "133158.550000",
          "133158.550000",
          "133158.550000",
          "133158.550000",
          "133158.566000",
          "133158.566000",
          "133158.566000",
          "133158.566000",
          "133158.566000",
          "133158.566000",
          "133158.566000",
          "133158.582000",
          "133158.582000",
          "133158.582000",
          "133158.582000",
          "133158.582000",
          "133158.582000",
          "133238.535000",
          "133238.535000",
          "133238.535000",
          "133238.550000",
          "133238.550000",
          "133238.550000",
          "133238.550000",
          "133238.550000",
          "133238.566000",
          "133238.566000",
          "133238.566000",
          "133238.566000",
          "133238.566000",
          "133238.582000",
          "133238.582000",
          "133238.582000",
          "133238.582000",
          "133238.582000",
          "133238.582000",
          "133238.582000",
          "133318.535000",
          "133318.535000",
          "133318.550000",
          "133318.550000",
          "133318.550000",
          "133318.550000",
          "133318.566000",
          "133318.566000",
          "133318.566000",
          "133318.566000",
          "133318.566000",
          "133318.566000",
          "133318.582000",
          "133318.582000",
          "133318.582000",
          "133318.582000",
          "133318.582000",
          "133318.597000",
          "133318.597000",
          "133318.597000",
          "133358.535000",
          "133358.535000",
          "133358.550000",
          "133358.550000",
          "133358.550000",
          "133358.550000",
          "133358.550000",
          "133358.550000",
          "133358.566000",
          "133358.566000",
          "133358.566000",
          "133358.566000",
          "133358.566000",
          "133358.566000",
          "133358.582000",
          "133358.582000",
          "133358.582000",
          "133358.582000",
          "133358.582000",
          "133358.582000",
          "133419.269000",
          "133419.269000",
          "133419.269000",
          "133419.269000",
          "133419.269000",
          "133419.285000",
          "133419.285000",
          "133419.285000",
          "133419.300000",
          "133419.300000",
          "133419.316000"
        ],
        "InstanceNumber": [
          1,
          2,
          3,
          4,
          5,
          6,
          7,
          8,
          9,
          10,
          11,
          12,
          13,
          14,
          15,
          16,
          17,
          18,
          19,
          20,
          21,
          22,
          23,
          24,
          25,
          26,
          27,
          28,
          29,
          30,
          31,
          32,
          33,
          34,
          35,
          36,
          37,
          38,
          39,
          40,
          41,
          42,
          43,
          44,
          45,
          46,
          47,
          48,
          49,
          50,
          51,
          52,
          53,
          54,
          55,
          56,
          57,
          58,
          59,
          60,
          61,
          62,
          63,
          64,
          65,
          66,
          67,
          68,
          69,
          70,
          71,
          72,
          73,
          74,
          75,
          76,
          77,
          78,
          79,
          80,
          81,
          82,
          83,
          84,
          85,
          86,
          87,
          88,
          89,
          90,
          91,
          92,
          93,
          94,
          95,
          96,
          97,
          98,
          99,
          100,
          101,
          102,
          103,
          104,
          105,
          106,
          107,
          108,
          109,
          110,
          111,
          112,
          113,
          114,
          115,
          116,
          117,
          118,
          119,
          120,
          121,
          122,
          123,
          124,
          125,
          126,
          127,
          128,
          129,
          130,
          131,
          132,
          133,
          134,
          135,
          136,
          137,
          138,
          139,
          140,
          141,
          142,
          143,
          144,
          145,
          146,
          147,
          148,
          149,
          150,
          151,
          152,
          153,
          154,
          155,
          156,
          157,
          158,
          159,
          160,
          161,
          162,
          163,
          164
        ],
        "WindowCenter": [
          1052.0,
          1052.0,
          1052.0,
          1051.0,
          1052.0,
          1050.0,
          1050.0,
          1051.0,
          1052.0,
          1051.0,
          1050.0,
          1050.0,
          1051.0,
          1052.0,
          1053.0,
          1052.0,
          1051.0,
          1052.0,
          1052.0,
          1051.0,
          1051.0,
          1052.0,
          1051.0,
          1051.0,
          1051.0,
          1053.0,
          1052.0,
          1051.0,
          1051.0,
          1051.0,
          1051.0,
          1053.0,
          1051.0,
          1049.0,
          1052.0,
          1051.0,
          1051.0,
          1050.0,
          1051.0,
          1051.0,
          1049.0,
          1050.0,
          1049.0,
          1052.0,
          1052.0,
          1052.0,
          1050.0,
          1051.0,
          1054.0,
          1052.0,
          1053.0,
          1051.0,
          1052.0,
          1054.0,
          1051.0,
          1051.0,
          1051.0,
          1051.0,
          1051.0,
          1053.0,
          1052.0,
          1052.0,
          1052.0,
          1051.0,
          1050.0,
          1050.0,
          1051.0,
          1052.0,
          1052.0,
          1052.0,
          1052.0,
          1052.0,
          1052.0,
          1054.0,
          1055.0,
          1052.0,
          1052.0,
          1053.0,
          1053.0,
          1052.0,
          1051.0,
          1052.0,
          1052.0,
          1053.0,
          1054.0,
          1052.0,
          1053.0,
          1052.0,
          1052.0,
          1052.0,
          1052.0,
          1052.0,
          1053.0,
          1053.0,
          1054.0,
          1054.0,
          1052.0,
          1054.0,
          1052.0,
          1053.0,
          1055.0,
          1054.0,
          1049.0,
          1050.0,
          1053.0,
          1053.0,
          1053.0,
          1055.0,
          1054.0,
          1054.0,
          1054.0,
          1055.0,
          1055.0,
          1054.0,
          1054.0,
          1052.0,
          1053.0,
          1053.0,
          1052.0,
          1052.0,
          1052.0,
          1056.0,
          1053.0,
          1052.0,
          1052.0,
          1053.0,
          1053.0,
          1053.0,
          1054.0,
          1053.0,
          1053.0,
          1053.0,
          1054.0,
          1053.0,
          1053.0,
          1053.0,
          1053.0,
          1054.0,
          1055.0,
          1054.0,
          1054.0,
          1053.0,
          1053.0,
          1052.0,
          1054.0,
          1052.0,
          1052.0,
          1053.0,
          1052.0,
          1054.0,
          1054.0,
          1055.0,
          1052.0,
          1052.0,
          1056.0,
          1055.0,
          1056.0,
          1054.0,
          1052.0,
          1053.0,
          1053.0,
          1054.0,
          1055.0,
          1053.0
        ],
        "WindowWidth": [
          2799.0,
          2810.0,
          2802.0,
          2801.0,
          2811.0,
          2799.0,
          2793.0,
          2807.0,
          2806.0,
          2803.0,
          2799.0,
          2799.0,
          2803.0,
          2806.0,
          2806.0,
          2810.0,
          2806.0,
          2799.0,
          2808.0,
          2797.0,
          2803.0,
          2802.0,
          2798.0,
          2802.0,
          2803.0,
          2810.0,
          2806.0,
          2802.0,
          2805.0,
          2798.0,
          2807.0,
          2811.0,
          2798.0,
          2800.0,
          2803.0,
          2805.0,
          2801.0,
          2798.0,
          2806.0,
          2797.0,
          2797.0,
          2801.0,
          2796.0,
          2808.0,
          2808.0,
          2806.0,
          2798.0,
          2804.0,
          2809.0,
          2807.0,
          2810.0,
          2800.0,
          2816.0,
          2807.0,
          2801.0,
          2800.0,
          2799.0,
          2805.0,
          2801.0,
          2811.0,
          2803.0,
          2806.0,
          2799.0,
          2806.0,
          2798.0,
          2794.0,
          2806.0,
          2805.0,
          2802.0,
          2805.0,
          2803.0,
          2808.0,
          2808.0,
          2812.0,
          2816.0,
          2807.0,
          2803.0,
          2815.0,
          2802.0,
          2806.0,
          2797.0,
          2800.0,
          2805.0,
          2808.0,
          2809.0,
          2802.0,
          2811.0,
          2803.0,
          2808.0,
          2801.0,
          2809.0,
          2805.0,
          2807.0,
          2805.0,
          2809.0,
          2810.0,
          2806.0,
          2812.0,
          2799.0,
          2810.0,
          2822.0,
          2808.0,
          2795.0,
          2798.0,
          2814.0,
          2808.0,
          2814.0,
          2810.0,
          2808.0,
          2808.0,
          2799.0,
          2811.0,
          2807.0,
          2801.0,
          2809.0,
          2799.0,
          2806.0,
          2803.0,
          2802.0,
          2798.0,
          2805.0,
          2815.0,
          2802.0,
          2798.0,
          2800.0,
          2809.0,
          2807.0,
          2808.0,
