{
  "aor": 0.0015631707317073174,
  "aqi": 0.005281380548780488,
  "bids_meta": {
    "AcquisitionMatrixPE": 96,
    "AcquisitionNumber": 1,
    "AcquisitionTime": "14:43:40.752500",
    "BandwidthPerPixelPhaseEncode": 52.083,
    "BaseResolution": 96,
    "BodyPartExamined": "HEAD",
    "ConversionSoftware": "dcm2niix",
    "ConversionSoftwareVersion": "v1.0.20180622 GCC6.3.0",
    "DerivedVendorReportedEchoSpacing": 0.000600004,
    "DeviceSerialNumber": "18926",
    "DwellTime": 2.6e-06,
    "EchoTime": 0.025,
    "EffectiveEchoSpacing": 0.000200001,
    "FlipAngle": 50,
    "ImageOrientationPatientDICOM": [
      0.999992,
      0.00067012,
      0.00404905,
      2.11009e-10,
      0.98658,
      -0.16328
    ],
    "ImageType": [
      "ORIGINAL",
      "PRIMARY",
      "M",
      "ND",
      "ECHO",
      "00",
      "MOSAIC"
    ],
    "InPlanePhaseEncodingDirectionDICOM": "ROW",
    "InstitutionName": "NIMH",
    "InstitutionalDepartmentName": "Department",
    "MRAcquisitionType": "2D",
    "MagneticFieldStrength": 6.98,
    "Manufacturer": "Siemens",
    "ManufacturersModelName": "Investigational_Device_7T",
    "Modality": "MR",
    "ParallelReductionFactorInPlane": 3,
    "PartialFourier": 1,
    "PatientPosition": "HFS",
    "PercentPhaseFOV": 100,
    "PhaseEncodingDirection": "i",
    "PhaseEncodingSteps": 94,
    "PhaseResolution": 1,
    "PixelBandwidth": 2003,
    "ProcedureStepDescription": "UserProtocols_gonzalez",
    "ProtocolName": "NIH_EPI_2.0iso_TR2_Run14",
    "PulseSequenceDetails": "%CustomerSeq%_inati_nih_epi",
    "ReceiveCoilName": "32Ch_Head_7T",
    "ReconMatrixPE": 96,
    "RepetitionTime": 2,
    "SAR": 0.0803487,
    "ScanningSequence": "EP",
    "SequenceName": "epfid2d1_96",
    "SequenceVariant": "SK",
    "SeriesDescription": "NIH_EPI_2.0iso_TR2_Run14",
    "SeriesNumber": 18,
    "ShimSetting": [
      -83,
      276,
      1233,
      1967,
      -35,
      518,
      401,
      -253
    ],
    "SliceThickness": 2,
    "SliceTiming": [
      1.005,
      0,
      1.0425,
      0.0375,
      1.08,
      0.075,
      1.1175,
      0.1125,
      1.1525,
      0.15,
      1.19,
      0.1875,
      1.2275,
      0.225,
      1.265,
      0.2625,
      1.3025,
      0.2975,
      1.34,
      0.335,
      1.3775,
      0.3725,
      1.415,
      0.41,
      1.45,
      0.4475,
      1.4875,
      0.485,
      1.525,
      0.5225,
      1.5625,
      0.56,
      1.6,
      0.595,
      1.6375,
      0.6325,
      1.675,
      0.67,
      1.7125,
      0.7075,
      1.7475,
      0.745,
      1.785,
      0.7825,
      1.8225,
      0.82,
      1.86,
      0.855,
      1.8975,
      0.8925,
      1.935,
      0.93,
      1.9725,
      0.9675
    ],
    "SoftwareVersions": "syngo_MR_B17",
    "SpacingBetweenSlices": 2,
    "StationName": "FMRIFD7T",
    "TaskName": "FullFovNoAttentionTask",
    "TotalReadoutTime": 0.0190001,
    "TxRefAmp": 282,
    "dataset": "ds001555",
    "dcmmeta_affine": [
      [
        -1.9999831914901733,
        4.2201880878778297e-10,
        0.008208253420889378,
        95.76705169677734
      ],
      [
        -0.0013402394251897931,
        1.973159670829773,
        -0.32655632495880127,
        -64.46756744384766
      ],
      [
        0.008098097518086433,
        0.32655906677246094,
        1.9731431007385254,
        -46.29322052001953
      ],
      [
        0.0,
        0.0,
        0.0,
        1.0
      ]
    ],
    "dcmmeta_reorient_transform": [
      [
        0.0,
        -1.0,
        0.0,
        95.0
      ],
      [
        1.0,
        0.0,
        0.0,
        0.0
      ],
      [
        0.0,
        0.0,
        1.0,
        0.0
      ],
      [
        0.0,
        0.0,
        0.0,
        1.0
      ]
    ],
    "dcmmeta_shape": [
      96,
      96,
      54,
      164
    ],
    "dcmmeta_slice_dim": 2,
    "dcmmeta_version": 0.6,
    "global": {
      "const": {
        "AcquisitionMatrix": [
          0,
          96,
          96,
          0
        ],
        "AngioFlag": "N",
        "BitsAllocated": 16,
        "BitsStored": 12,
        "BodyPartExamined": "HEAD",
        "Columns": 768,
        "EchoNumbers": 1,
        "EchoTime": 25.0,
        "EchoTrainLength": 1,
        "FlipAngle": 50.0,
        "HighBit": 11,
        "ImageOrientationPatient": [
          0.99999157803662,
          0.00067011969073,
          0.00404904870684,
          2.110094e-10,
          0.98657984636313,
          -0.1632795356133
        ],
        "ImagePositionPatient": [
          -767.761392775,
          -786.41458365531,
          91.732777677076
        ],
        "ImageType": [
          "ORIGINAL",
          "PRIMARY",
          "M",
          "ND",
          "ECHO_00",
          "MOSAIC"
        ],
        "ImagedNucleus": "1H",
        "ImagingFrequency": 297.205184,
        "InPlanePhaseEncodingDirection": "ROW",
        "LargestImagePixelValue": 4095,
        "MRAcquisitionType": "2D",
        "MagneticFieldStrength": 6.98,
        "Manufacturer": "SIEMENS",
        "ManufacturerModelName": "Investigational_Device_7T",
        "Modality": "MR",
        "NumberOfAverages": 1.0,
        "NumberOfPhaseEncodingSteps": 94,
        "PercentPhaseFieldOfView": 100.0,
        "PercentSampling": 100.0,
        "PerformedProcedureStepStartTime": "125519.175000",
        "PhotometricInterpretation": "MONOCHROME2",
        "PixelBandwidth": 2003.0,
        "PixelRepresentation": 0,
        "PixelSpacing": [
          2.0,
          2.0
        ],
        "PositionReferenceIndicator": "",
        "ProtocolName": "NIH_EPI_2.0iso_TR2_Run14",
        "RepetitionTime": 2000.0,
        "Rows": 768,
        "SAR": 0.08034873613096,
        "SamplesPerPixel": 1,
        "ScanningSequence": "EP",
        "SequenceName": "epfid2d1_96",
        "SequenceVariant": "SK",
        "SeriesDescription": "NIH_EPI_2.0iso_TR2_Run14",
        "SeriesNumber": 18,
        "SliceLocation": -34.752389070505,
        "SliceThickness": 2.0,
        "SmallestImagePixelValue": 0,
        "SoftwareVersions": "syngo MR B17",
        "SpacingBetweenSlices": 2.0000000154846,
        "TransmitCoilName": "32Ch_Head_7T",
        "VariableFlipAngleFlag": "N",
        "WindowCenterWidthExplanation": "Algo1",
        "dBdt": 0.0
      },
      "slices": {}
    },
    "modality": "bold",
    "run_id": 15,
    "session_id": "03",
    "subject_id": "002",
    "task_id": "FullFovNoAttentionTask",
    "time": {
      "samples": {
        "AcquisitionNumber": [
          1,
          2,
          3,
          4,
          5,
          6,
          7,
          8,
          9,
          10,
          11,
          12,
          13,
          14,
          15,
          16,
          17,
          18,
          19,
          20,
          21,
          22,
          23,
          24,
          25,
          26,
          27,
          28,
          29,
          30,
          31,
          32,
          33,
          34,
          35,
          36,
          37,
          38,
          39,
          40,
          41,
          42,
          43,
          44,
          45,
          46,
          47,
          48,
          49,
          50,
          51,
          52,
          53,
          54,
          55,
          56,
          57,
          58,
          59,
          60,
          61,
          62,
          63,
          64,
          65,
          66,
          67,
          68,
          69,
          70,
          71,
          72,
          73,
          74,
          75,
          76,
          77,
          78,
          79,
          80,
          81,
          82,
          83,
          84,
          85,
          86,
          87,
          88,
          89,
          90,
          91,
          92,
          93,
          94,
          95,
          96,
          97,
          98,
          99,
          100,
          101,
          102,
          103,
          104,
          105,
          106,
          107,
          108,
          109,
          110,
          111,
          112,
          113,
          114,
          115,
          116,
          117,
          118,
          119,
          120,
          121,
          122,
          123,
          124,
          125,
          126,
          127,
          128,
          129,
          130,
          131,
          132,
          133,
          134,
          135,
          136,
          137,
          138,
          139,
          140,
          141,
          142,
          143,
          144,
          145,
          146,
          147,
          148,
          149,
          150,
          151,
          152,
          153,
          154,
          155,
          156,
          157,
          158,
          159,
          160,
          161,
          162,
          163,
          164
        ],
        "AcquisitionTime": [
          "144340.752500",
          "144344.767500",
          "144346.777500",
          "144348.785000",
          "144350.792500",
          "144352.800000",
          "144354.807500",
          "144356.817500",
          "144358.825000",
          "144400.832500",
          "144402.840000",
          "144404.850000",
          "144406.857500",
          "144408.865000",
          "144410.872500",
          "144412.880000",
          "144414.890000",
          "144416.897500",
          "144418.905000",
          "144420.912500",
          "144422.920000",
          "144424.930000",
          "144426.937500",
          "144428.945000",
          "144430.952500",
          "144432.962500",
          "144434.970000",
          "144436.977500",
          "144438.985000",
          "144440.992500",
          "144443.002500",
          "144445.010000",
          "144447.017500",
          "144449.025000",
          "144451.032500",
          "144453.042500",
          "144455.050000",
          "144457.057500",
          "144459.065000",
          "144501.072500",
          "144503.082500",
          "144505.090000",
          "144507.097500",
          "144509.105000",
          "144511.115000",
          "144513.122500",
          "144515.130000",
          "144517.137500",
          "144519.145000",
          "144521.155000",
          "144523.162500",
          "144525.170000",
          "144527.177500",
          "144529.185000",
          "144531.195000",
          "144533.202500",
          "144535.210000",
          "144537.217500",
          "144539.227500",
          "144541.235000",
          "144543.242500",
          "144545.250000",
          "144547.257500",
          "144549.267500",
          "144551.275000",
          "144553.282500",
          "144555.290000",
          "144557.297500",
          "144559.307500",
          "144601.315000",
          "144603.322500",
          "144605.330000",
          "144607.340000",
          "144609.347500",
          "144611.355000",
          "144613.362500",
          "144615.370000",
          "144617.380000",
          "144619.387500",
          "144621.395000",
          "144623.402500",
          "144625.410000",
          "144627.420000",
          "144629.427500",
          "144631.435000",
          "144633.442500",
          "144635.450000",
          "144637.460000",
          "144639.467500",
          "144641.475000",
          "144643.482500",
          "144645.492500",
          "144647.500000",
          "144649.507500",
          "144651.515000",
          "144653.522500",
          "144655.532500",
          "144657.540000",
          "144659.547500",
          "144701.555000",
          "144703.562500",
          "144705.572500",
          "144707.580000",
          "144709.587500",
          "144711.595000",
          "144713.605000",
          "144715.612500",
          "144717.620000",
          "144719.627500",
          "144721.635000",
          "144723.645000",
          "144725.652500",
          "144727.660000",
          "144729.667500",
          "144731.675000",
          "144733.685000",
          "144735.692500",
          "144737.700000",
          "144739.707500",
          "144741.717500",
          "144743.725000",
          "144745.732500",
          "144747.740000",
          "144749.747500",
          "144751.757500",
          "144753.765000",
          "144755.772500",
          "144757.780000",
          "144759.787500",
          "144801.797500",
          "144803.805000",
          "144805.812500",
          "144807.820000",
          "144809.827500",
          "144811.837500",
          "144813.845000",
          "144815.852500",
          "144817.860000",
          "144819.870000",
          "144821.877500",
          "144823.885000",
          "144825.892500",
          "144827.900000",
          "144829.910000",
          "144831.917500",
          "144833.925000",
          "144835.932500",
          "144837.940000",
          "144839.950000",
          "144841.957500",
          "144843.965000",
          "144845.972500",
          "144847.982500",
          "144849.990000",
          "144851.997500",
          "144854.005000",
          "144856.012500",
          "144858.022500",
          "144900.030000",
          "144902.037500",
          "144904.045000",
          "144906.052500",
          "144908.062500",
          "144910.070000"
        ],
        "ContentTime": [
          "144438.566000",
          "144438.566000",
          "144438.566000",
          "144438.566000",
          "144438.582000",
          "144438.582000",
          "144438.582000",
          "144438.582000",
          "144438.582000",
          "144438.582000",
          "144438.597000",
          "144438.597000",
          "144438.597000",
          "144438.597000",
          "144438.597000",
          "144438.597000",
          "144438.597000",
          "144438.613000",
          "144438.613000",
          "144438.613000",
          "144438.613000",
          "144438.613000",
          "144438.613000",
          "144438.613000",
          "144438.628000",
          "144438.628000",
          "144438.628000",
          "144438.628000",
          "144518.535000",
          "144518.550000",
          "144518.550000",
          "144518.550000",
          "144518.550000",
          "144518.550000",
          "144518.550000",
          "144518.566000",
          "144518.566000",
          "144518.566000",
          "144518.566000",
          "144518.582000",
          "144518.582000",
          "144518.582000",
          "144518.582000",
          "144518.582000",
          "144518.582000",
          "144518.582000",
          "144518.597000",
          "144518.597000",
          "144558.535000",
          "144558.550000",
          "144558.550000",
          "144558.550000",
          "144558.550000",
          "144558.550000",
          "144558.566000",
          "144558.566000",
          "144558.566000",
          "144558.566000",
          "144558.566000",
          "144558.566000",
          "144558.582000",
          "144558.582000",
          "144558.582000",
          "144558.582000",
          "144558.582000",
          "144558.597000",
          "144558.597000",
          "144558.597000",
          "144638.535000",
          "144638.550000",
          "144638.550000",
          "144638.550000",
          "144638.550000",
          "144638.550000",
          "144638.566000",
          "144638.566000",
          "144638.566000",
          "144638.566000",
          "144638.566000",
          "144638.582000",
          "144638.582000",
          "144638.582000",
          "144638.582000",
          "144638.597000",
          "144638.597000",
          "144638.597000",
          "144638.597000",
          "144638.597000",
          "144718.535000",
          "144718.550000",
          "144718.550000",
          "144718.550000",
          "144718.566000",
          "144718.566000",
          "144718.566000",
          "144718.566000",
          "144718.566000",
          "144718.566000",
          "144718.566000",
          "144718.582000",
          "144718.582000",
          "144718.582000",
          "144718.582000",
          "144718.582000",
          "144718.597000",
          "144718.597000",
          "144718.597000",
          "144718.597000",
          "144758.535000",
          "144758.550000",
          "144758.550000",
          "144758.550000",
          "144758.550000",
          "144758.566000",
          "144758.566000",
          "144758.566000",
          "144758.566000",
          "144758.566000",
          "144758.566000",
          "144758.566000",
          "144758.582000",
          "144758.582000",
          "144758.582000",
          "144758.582000",
          "144758.582000",
          "144758.582000",
          "144758.597000",
          "144758.597000",
          "144838.535000",
          "144838.550000",
          "144838.550000",
          "144838.550000",
          "144838.550000",
          "144838.550000",
          "144838.550000",
          "144838.566000",
          "144838.566000",
          "144838.566000",
          "144838.566000",
          "144838.566000",
          "144838.566000",
          "144838.582000",
          "144838.582000",
          "144838.582000",
          "144838.582000",
          "144838.582000",
          "144838.582000",
          "144838.582000",
          "144910.222000",
          "144910.222000",
          "144910.222000",
          "144910.222000",
          "144910.222000",
          "144910.222000",
          "144910.238000",
          "144910.238000",
          "144910.238000",
          "144910.253000",
          "144910.253000",
          "144910.253000",
          "144910.253000",
          "144910.253000",
          "144910.253000",
          "144910.269000"
        ],
        "InstanceCreationTime": [
          "144438.566000",
          "144438.566000",
          "144438.566000",
          "144438.566000",
          "144438.582000",
          "144438.582000",
          "144438.582000",
          "144438.582000",
          "144438.582000",
          "144438.582000",
          "144438.597000",
          "144438.597000",
          "144438.597000",
          "144438.597000",
          "144438.597000",
          "144438.597000",
          "144438.597000",
          "144438.613000",
          "144438.613000",
          "144438.613000",
          "144438.613000",
          "144438.613000",
          "144438.613000",
          "144438.613000",
          "144438.628000",
          "144438.628000",
          "144438.628000",
          "144438.628000",
          "144518.535000",
          "144518.550000",
          "144518.550000",
          "144518.550000",
          "144518.550000",
          "144518.550000",
          "144518.550000",
          "144518.566000",
          "144518.566000",
          "144518.566000",
          "144518.566000",
          "144518.582000",
          "144518.582000",
          "144518.582000",
          "144518.582000",
          "144518.582000",
          "144518.582000",
          "144518.582000",
          "144518.597000",
          "144518.597000",
          "144558.535000",
          "144558.550000",
          "144558.550000",
          "144558.550000",
          "144558.550000",
          "144558.550000",
          "144558.566000",
          "144558.566000",
          "144558.566000",
          "144558.566000",
          "144558.566000",
          "144558.566000",
          "144558.582000",
          "144558.582000",
          "144558.582000",
          "144558.582000",
          "144558.582000",
          "144558.597000",
          "144558.597000",
          "144558.597000",
          "144638.535000",
          "144638.550000",
          "144638.550000",
          "144638.550000",
          "144638.550000",
          "144638.550000",
          "144638.566000",
          "144638.566000",
          "144638.566000",
          "144638.566000",
          "144638.566000",
          "144638.582000",
          "144638.582000",
          "144638.582000",
          "144638.582000",
          "144638.597000",
          "144638.597000",
          "144638.597000",
          "144638.597000",
          "144638.597000",
          "144718.535000",
          "144718.550000",
          "144718.550000",
          "144718.550000",
          "144718.566000",
          "144718.566000",
          "144718.566000",
          "144718.566000",
          "144718.566000",
          "144718.566000",
          "144718.566000",
          "144718.582000",
          "144718.582000",
          "144718.582000",
          "144718.582000",
          "144718.582000",
          "144718.597000",
          "144718.597000",
          "144718.597000",
          "144718.597000",
          "144758.535000",
          "144758.550000",
          "144758.550000",
          "144758.550000",
          "144758.550000",
          "144758.566000",
          "144758.566000",
          "144758.566000",
          "144758.566000",
          "144758.566000",
          "144758.566000",
          "144758.566000",
          "144758.582000",
          "144758.582000",
          "144758.582000",
          "144758.582000",
          "144758.582000",
          "144758.582000",
          "144758.597000",
          "144758.597000",
          "144838.535000",
          "144838.550000",
          "144838.550000",
          "144838.550000",
          "144838.550000",
          "144838.550000",
          "144838.550000",
          "144838.566000",
          "144838.566000",
          "144838.566000",
          "144838.566000",
          "144838.566000",
          "144838.566000",
          "144838.582000",
          "144838.582000",
          "144838.582000",
          "144838.582000",
          "144838.582000",
          "144838.582000",
          "144838.582000",
          "144910.222000",
          "144910.222000",
          "144910.222000",
          "144910.222000",
          "144910.222000",
          "144910.222000",
          "144910.238000",
          "144910.238000",
          "144910.238000",
          "144910.253000",
          "144910.253000",
          "144910.253000",
          "144910.253000",
          "144910.253000",
          "144910.253000",
          "144910.269000"
        ],
        "InstanceNumber": [
          1,
          2,
          3,
          4,
          5,
          6,
          7,
          8,
          9,
          10,
          11,
          12,
          13,
          14,
          15,
          16,
          17,
          18,
          19,
          20,
          21,
          22,
          23,
          24,
          25,
          26,
          27,
          28,
          29,
          30,
          31,
          32,
          33,
          34,
          35,
          36,
          37,
          38,
          39,
          40,
          41,
          42,
          43,
          44,
          45,
          46,
          47,
          48,
          49,
          50,
          51,
          52,
          53,
          54,
          55,
          56,
          57,
          58,
          59,
          60,
          61,
          62,
          63,
          64,
          65,
          66,
          67,
          68,
          69,
          70,
          71,
          72,
          73,
          74,
          75,
          76,
          77,
          78,
          79,
          80,
          81,
          82,
          83,
          84,
          85,
          86,
          87,
          88,
          89,
          90,
          91,
          92,
          93,
          94,
          95,
          96,
          97,
          98,
          99,
          100,
          101,
          102,
          103,
          104,
          105,
          106,
          107,
          108,
          109,
          110,
          111,
          112,
          113,
          114,
          115,
          116,
          117,
          118,
          119,
          120,
          121,
          122,
          123,
          124,
          125,
          126,
          127,
          128,
          129,
          130,
          131,
          132,
          133,
          134,
          135,
          136,
          137,
          138,
          139,
          140,
          141,
          142,
          143,
          144,
          145,
          146,
          147,
          148,
          149,
          150,
          151,
          152,
          153,
          154,
          155,
          156,
          157,
          158,
          159,
          160,
          161,
          162,
          163,
          164
        ],
        "WindowCenter": [
          1050.0,
          1051.0,
          1050.0,
          1050.0,
          1050.0,
          1048.0,
          1050.0,
          1051.0,
          1050.0,
          1052.0,
          1051.0,
          1051.0,
          1051.0,
          1050.0,
          1050.0,
          1050.0,
          1050.0,
          1051.0,
          1050.0,
          1049.0,
          1052.0,
          1054.0,
          1053.0,
          1050.0,
          1049.0,
          1050.0,
          1052.0,
          1051.0,
          1049.0,
          1050.0,
          1052.0,
          1051.0,
          1050.0,
          1049.0,
          1049.0,
          1052.0,
          1052.0,
          1050.0,
          1048.0,
          1046.0,
          1048.0,
          1049.0,
          1051.0,
          1049.0,
          1047.0,
          1050.0,
          1051.0,
          1051.0,
          1049.0,
          1051.0,
          1053.0,
          1051.0,
          1051.0,
          1050.0,
          1048.0,
          1051.0,
          1053.0,
          1053.0,
          1053.0,
          1053.0,
          1051.0,
          1050.0,
          1049.0,
          1047.0,
          1050.0,
          1049.0,
          1049.0,
          1053.0,
          1052.0,
          1053.0,
          1051.0,
          1049.0,
          1047.0,
          1049.0,
          1049.0,
          1051.0,
          1050.0,
          1048.0,
          1048.0,
          1050.0,
          1050.0,
          1051.0,
          1051.0,
          1051.0,
          1052.0,
          1050.0,
          1051.0,
          1051.0,
          1051.0,
          1053.0,
          1052.0,
          1052.0,
          1051.0,
          1050.0,
          1053.0,
          1051.0,
          1051.0,
          1050.0,
          1052.0,
          1051.0,
          1052.0,
          1053.0,
          1051.0,
          1052.0,
          1052.0,
          1052.0,
          1050.0,
          1051.0,
          1051.0,
          1053.0,
          1049.0,
          1051.0,
          1053.0,
          1051.0,
          1051.0,
          1050.0,
          1050.0,
          1052.0,
          1051.0,
          1052.0,
          1051.0,
          1050.0,
          1051.0,
          1052.0,
          1053.0,
          1052.0,
          1054.0,
          1053.0,
          1053.0,
          1052.0,
          1052.0,
          1052.0,
          1053.0,
          1053.0,
          1052.0,
          1053.0,
          1053.0,
          1055.0,
          1055.0,
          1055.0,
          1055.0,
          1054.0,
          1053.0,
          1054.0,
          1054.0,
          1051.0,
          1051.0,
          1050.0,
          1052.0,
          1051.0,
          1051.0,
          1052.0,
          1051.0,
          1051.0,
          1051.0,
          1053.0,
          1052.0,
          1052.0,
          1052.0,
          1053.0,
          1055.0,
          1055.0,
          1055.0,
          1058.0
        ],
        "WindowWidth": [
          2800.0,
          2802.0,
          2796.0,
          2796.0,
          2793.0,
          2791.0,
          2799.0,
          2801.0,
          2794.0,
          2807.0,
          2804.0,
          2802.0,
          2801.0,
          2792.0,
          2798.0,
          2796.0,
          2794.0,
          2803.0,
          2792.0,
          2796.0,
          2806.0,
          2812.0,
          2806.0,
          2790.0,
          2796.0,
          2791.0,
          2798.0,
          2795.0,
          2792.0,
          2796.0,
          2795.0,
          2786.0,
          2796.0,
          2793.0,
          2792.0,
          2799.0,
          2798.0,
          2794.0,
          2784.0,
          2779.0,
          2791.0,
          2794.0,
          2795.0,
          2786.0,
          2787.0,
          2796.0,
          2799.0,
          2787.0,
          2789.0,
          2801.0,
          2801.0,
          2795.0,
          2786.0,
          2792.0,
          2789.0,
          2801.0,
          2809.0,
          2797.0,
          2799.0,
          2800.0,
          2790.0,
          2790.0,
          2789.0,
          2785.0,
          2793.0,
          2784.0,
          2797.0,
          2805.0,
          2808.0,
          2808.0,
          2802.0,
          2793.0,
          2780.0,
          2790.0,
          2790.0,
          2795.0,
          2791.0,
          2785.0,
          2789.0,
          2794.0,
          2796.0,
          2800.0,
          2795.0,
          2796.0,
          2800.0,
          2791.0,
          2797.0,
          2793.0,
          2792.0,
          2804.0,
          2798.0,
          2796.0,
          2792.0,
          2789.0,
          2805.0,
          2790.0,
          2789.0,
          2795.0,
          2796.0,
          2797.0,
          2794.0,
          2804.0,
          2798.0,
          2803.0,
          2803.0,
          2794.0,
          2795.0,
          2801.0,
          2797.0,
          2793.0,
          2792.0,
          2796.0,
          2804.0,
          2792.0,
          2796.0,
          2787.0,
          2794.0,
          2797.0,
          2791.0,
          2801.0,
          2790.0,
          2794.0,
          2799.0,
          2800.0,
          2803.0,
          2798.0,
          2807.0,
          2804.0,
