{
  "aor": 0.00227640243902439,
  "aqi": 0.005031035426829269,
  "bids_meta": {
    "AcquisitionMatrixPE": 96,
    "AcquisitionNumber": 1,
    "AcquisitionTime": "14:31:9.995000",
    "BandwidthPerPixelPhaseEncode": 52.083,
    "BaseResolution": 96,
    "BodyPartExamined": "HEAD",
    "ConversionSoftware": "dcm2niix",
    "ConversionSoftwareVersion": "v1.0.20180622 GCC6.3.0",
    "DerivedVendorReportedEchoSpacing": 0.000600004,
    "DeviceSerialNumber": "18926",
    "DwellTime": 2.6e-06,
    "EchoTime": 0.025,
    "EffectiveEchoSpacing": 0.000200001,
    "FlipAngle": 50,
    "ImageOrientationPatientDICOM": [
      0.999992,
      0.00067012,
      0.00404905,
      2.11009e-10,
      0.98658,
      -0.16328
    ],
    "ImageType": [
      "ORIGINAL",
      "PRIMARY",
      "M",
      "ND",
      "ECHO",
      "00",
      "MOSAIC"
    ],
    "InPlanePhaseEncodingDirectionDICOM": "ROW",
    "InstitutionName": "NIMH",
    "InstitutionalDepartmentName": "Department",
    "MRAcquisitionType": "2D",
    "MagneticFieldStrength": 6.98,
    "Manufacturer": "Siemens",
    "ManufacturersModelName": "Investigational_Device_7T",
    "Modality": "MR",
    "ParallelReductionFactorInPlane": 3,
    "PartialFourier": 1,
    "PatientPosition": "HFS",
    "PercentPhaseFOV": 100,
    "PhaseEncodingDirection": "i",
    "PhaseEncodingSteps": 94,
    "PhaseResolution": 1,
    "PixelBandwidth": 2003,
    "ProcedureStepDescription": "UserProtocols_gonzalez",
    "ProtocolName": "NIH_EPI_2.0iso_TR2_Run12",
    "PulseSequenceDetails": "%CustomerSeq%_inati_nih_epi",
    "ReceiveCoilName": "32Ch_Head_7T",
    "ReconMatrixPE": 96,
    "RepetitionTime": 2,
    "SAR": 0.0803487,
    "ScanningSequence": "EP",
    "SequenceName": "epfid2d1_96",
    "SequenceVariant": "SK",
    "SeriesDescription": "NIH_EPI_2.0iso_TR2_Run12",
    "SeriesNumber": 16,
    "ShimSetting": [
      -83,
      276,
      1233,
      1967,
      -35,
      518,
      401,
      -253
    ],
    "SliceThickness": 2,
    "SliceTiming": [
      1.0025,
      0,
      1.04,
      0.0375,
      1.0775,
      0.075,
      1.115,
      0.1125,
      1.1525,
      0.1475,
      1.19,
      0.185,
      1.2275,
      0.2225,
      1.265,
      0.26,
      1.3,
      0.2975,
      1.3375,
      0.335,
      1.375,
      0.3725,
      1.4125,
      0.4075,
      1.45,
      0.445,
      1.4875,
      0.4825,
      1.525,
      0.52,
      1.5625,
      0.5575,
      1.5975,
      0.595,
      1.635,
      0.6325,
      1.6725,
      0.67,
      1.71,
      0.705,
      1.7475,
      0.7425,
      1.785,
      0.78,
      1.8225,
      0.8175,
      1.8575,
      0.855,
      1.895,
      0.8925,
      1.9325,
      0.93,
      1.97,
      0.9675
    ],
    "SoftwareVersions": "syngo_MR_B17",
    "SpacingBetweenSlices": 2,
    "StationName": "FMRIFD7T",
    "TaskName": "FullFovNoAttentionTask",
    "TotalReadoutTime": 0.0190001,
    "TxRefAmp": 282,
    "dataset": "ds001555",
    "dcmmeta_affine": [
      [
        -1.9999831914901733,
        4.2201880878778297e-10,
        0.008208253420889378,
        95.76705169677734
      ],
      [
        -0.0013402394251897931,
        1.973159670829773,
        -0.32655632495880127,
        -64.46756744384766
      ],
      [
        0.008098097518086433,
        0.32655906677246094,
        1.9731431007385254,
        -46.29322052001953
      ],
      [
        0.0,
        0.0,
        0.0,
        1.0
      ]
    ],
    "dcmmeta_reorient_transform": [
      [
        0.0,
        -1.0,
        0.0,
        95.0
      ],
      [
        1.0,
        0.0,
        0.0,
        0.0
      ],
      [
        0.0,
        0.0,
        1.0,
        0.0
      ],
      [
        0.0,
        0.0,
        0.0,
        1.0
      ]
    ],
    "dcmmeta_shape": [
      96,
      96,
      54,
      164
    ],
    "dcmmeta_slice_dim": 2,
    "dcmmeta_version": 0.6,
    "global": {
      "const": {
        "AcquisitionMatrix": [
          0,
          96,
          96,
          0
        ],
        "AngioFlag": "N",
        "BitsAllocated": 16,
        "BitsStored": 12,
        "BodyPartExamined": "HEAD",
        "Columns": 768,
        "EchoNumbers": 1,
        "EchoTime": 25.0,
        "EchoTrainLength": 1,
        "FlipAngle": 50.0,
        "HighBit": 11,
        "ImageOrientationPatient": [
          0.99999157803662,
          0.00067011969073,
          0.00404904870684,
          2.110094e-10,
          0.98657984636313,
          -0.1632795356133
        ],
        "ImagePositionPatient": [
          -767.761392775,
          -786.41458365531,
          91.732777677076
        ],
        "ImageType": [
          "ORIGINAL",
          "PRIMARY",
          "M",
          "ND",
          "ECHO_00",
          "MOSAIC"
        ],
        "ImagedNucleus": "1H",
        "ImagingFrequency": 297.205163,
        "InPlanePhaseEncodingDirection": "ROW",
        "LargestImagePixelValue": 4095,
        "MRAcquisitionType": "2D",
        "MagneticFieldStrength": 6.98,
        "Manufacturer": "SIEMENS",
        "ManufacturerModelName": "Investigational_Device_7T",
        "Modality": "MR",
        "NumberOfAverages": 1.0,
        "NumberOfPhaseEncodingSteps": 94,
        "PercentPhaseFieldOfView": 100.0,
        "PercentSampling": 100.0,
        "PerformedProcedureStepStartTime": "125519.175000",
        "PhotometricInterpretation": "MONOCHROME2",
        "PixelBandwidth": 2003.0,
        "PixelRepresentation": 0,
        "PixelSpacing": [
          2.0,
          2.0
        ],
        "PositionReferenceIndicator": "",
        "ProtocolName": "NIH_EPI_2.0iso_TR2_Run12",
        "RepetitionTime": 2000.0,
        "Rows": 768,
        "SAR": 0.08034873613096,
        "SamplesPerPixel": 1,
        "ScanningSequence": "EP",
        "SequenceName": "epfid2d1_96",
        "SequenceVariant": "SK",
        "SeriesDescription": "NIH_EPI_2.0iso_TR2_Run12",
        "SeriesNumber": 16,
        "SliceLocation": -34.752389070505,
        "SliceThickness": 2.0,
        "SmallestImagePixelValue": 0,
        "SoftwareVersions": "syngo MR B17",
        "SpacingBetweenSlices": 2.0000000154846,
        "TransmitCoilName": "32Ch_Head_7T",
        "VariableFlipAngleFlag": "N",
        "WindowCenterWidthExplanation": "Algo1",
        "dBdt": 0.0
      },
      "slices": {}
    },
    "modality": "bold",
    "run_id": 13,
    "session_id": "03",
    "subject_id": "002",
    "task_id": "FullFovNoAttentionTask",
    "time": {
      "samples": {
        "AcquisitionNumber": [
          1,
          2,
          3,
          4,
          5,
          6,
          7,
          8,
          9,
          10,
          11,
          12,
          13,
          14,
          15,
          16,
          17,
          18,
          19,
          20,
          21,
          22,
          23,
          24,
          25,
          26,
          27,
          28,
          29,
          30,
          31,
          32,
          33,
          34,
          35,
          36,
          37,
          38,
          39,
          40,
          41,
          42,
          43,
          44,
          45,
          46,
          47,
          48,
          49,
          50,
          51,
          52,
          53,
          54,
          55,
          56,
          57,
          58,
          59,
          60,
          61,
          62,
          63,
          64,
          65,
          66,
          67,
          68,
          69,
          70,
          71,
          72,
          73,
          74,
          75,
          76,
          77,
          78,
          79,
          80,
          81,
          82,
          83,
          84,
          85,
          86,
          87,
          88,
          89,
          90,
          91,
          92,
          93,
          94,
          95,
          96,
          97,
          98,
          99,
          100,
          101,
          102,
          103,
          104,
          105,
          106,
          107,
          108,
          109,
          110,
          111,
          112,
          113,
          114,
          115,
          116,
          117,
          118,
          119,
          120,
          121,
          122,
          123,
          124,
          125,
          126,
          127,
          128,
          129,
          130,
          131,
          132,
          133,
          134,
          135,
          136,
          137,
          138,
          139,
          140,
          141,
          142,
          143,
          144,
          145,
          146,
          147,
          148,
          149,
          150,
          151,
          152,
          153,
          154,
          155,
          156,
          157,
          158,
          159,
          160,
          161,
          162,
          163,
          164
        ],
        "AcquisitionTime": [
          "143109.995000",
          "143114.012500",
          "143116.020000",
          "143118.027500",
          "143120.035000",
          "143122.045000",
          "143124.052500",
          "143126.060000",
          "143128.067500",
          "143130.077500",
          "143132.085000",
          "143134.092500",
          "143136.100000",
          "143138.107500",
          "143140.117500",
          "143142.125000",
          "143144.132500",
          "143146.140000",
          "143148.147500",
          "143150.157500",
          "143152.165000",
          "143154.172500",
          "143156.180000",
          "143158.190000",
          "143200.197500",
          "143202.205000",
          "143204.212500",
          "143206.220000",
          "143208.230000",
          "143210.237500",
          "143212.245000",
          "143214.252500",
          "143216.260000",
          "143218.270000",
          "143220.277500",
          "143222.285000",
          "143224.292500",
          "143226.302500",
          "143228.310000",
          "143230.317500",
          "143232.325000",
          "143234.332500",
          "143236.342500",
          "143238.350000",
          "143240.357500",
          "143242.365000",
          "143244.372500",
          "143246.382500",
          "143248.390000",
          "143250.397500",
          "143252.405000",
          "143254.412500",
          "143256.422500",
          "143258.430000",
          "143300.437500",
          "143302.445000",
          "143304.455000",
          "143306.462500",
          "143308.470000",
          "143310.477500",
          "143312.485000",
          "143314.495000",
          "143316.502500",
          "143318.510000",
          "143320.517500",
          "143322.525000",
          "143324.535000",
          "143326.542500",
          "143328.550000",
          "143330.557500",
          "143332.567500",
          "143334.575000",
          "143336.582500",
          "143338.590000",
          "143340.597500",
          "143342.607500",
          "143344.615000",
          "143346.622500",
          "143348.630000",
          "143350.637500",
          "143352.647500",
          "143354.655000",
          "143356.662500",
          "143358.670000",
          "143400.680000",
          "143402.687500",
          "143404.695000",
          "143406.702500",
          "143408.710000",
          "143410.720000",
          "143412.727500",
          "143414.735000",
          "143416.742500",
          "143418.750000",
          "143420.760000",
          "143422.767500",
          "143424.775000",
          "143426.782500",
          "143428.792500",
          "143430.800000",
          "143432.807500",
          "143434.815000",
          "143436.822500",
          "143438.832500",
          "143440.840000",
          "143442.847500",
          "143444.855000",
          "143446.862500",
          "143448.872500",
          "143450.880000",
          "143452.887500",
          "143454.895000",
          "143456.902500",
          "143458.912500",
          "143500.920000",
          "143502.927500",
          "143504.935000",
          "143506.945000",
          "143508.952500",
          "143510.960000",
          "143512.967500",
          "143514.975000",
          "143516.985000",
          "143518.992500",
          "143521.000000",
          "143523.007500",
          "143525.015000",
          "143527.025000",
          "143529.032500",
          "143531.040000",
          "143533.047500",
          "143535.057500",
          "143537.065000",
          "143539.072500",
          "143541.080000",
          "143543.087500",
          "143545.097500",
          "143547.105000",
          "143549.112500",
          "143551.120000",
          "143553.127500",
          "143555.137500",
          "143557.145000",
          "143559.152500",
          "143601.160000",
          "143603.170000",
          "143605.177500",
          "143607.185000",
          "143609.192500",
          "143611.200000",
          "143613.210000",
          "143615.217500",
          "143617.225000",
          "143619.232500",
          "143621.240000",
          "143623.250000",
          "143625.257500",
          "143627.265000",
          "143629.272500",
          "143631.280000",
          "143633.290000",
          "143635.297500",
          "143637.305000",
          "143639.312500"
        ],
        "ContentTime": [
          "143153.488000",
          "143153.503000",
          "143153.503000",
          "143153.503000",
          "143153.519000",
          "143153.519000",
          "143153.519000",
          "143153.519000",
          "143153.519000",
          "143153.519000",
          "143153.519000",
          "143153.535000",
          "143153.535000",
          "143153.535000",
          "143153.535000",
          "143153.535000",
          "143153.535000",
          "143153.550000",
          "143153.550000",
          "143153.550000",
          "143233.488000",
          "143233.488000",
          "143233.488000",
          "143233.488000",
          "143233.488000",
          "143233.488000",
          "143233.488000",
          "143233.503000",
          "143233.503000",
          "143233.503000",
          "143233.519000",
          "143233.519000",
          "143233.519000",
          "143233.519000",
          "143233.519000",
          "143233.519000",
          "143233.535000",
          "143233.535000",
          "143233.535000",
          "143233.535000",
          "143313.488000",
          "143313.488000",
          "143313.488000",
          "143313.488000",
          "143313.488000",
          "143313.488000",
          "143313.488000",
          "143313.503000",
          "143313.503000",
          "143313.503000",
          "143313.519000",
          "143313.519000",
          "143313.519000",
          "143313.519000",
          "143313.519000",
          "143313.535000",
          "143313.535000",
          "143313.535000",
          "143313.535000",
          "143313.535000",
          "143353.488000",
          "143353.488000",
          "143353.488000",
          "143353.488000",
          "143353.488000",
          "143353.488000",
          "143353.488000",
          "143353.503000",
          "143353.503000",
          "143353.503000",
          "143353.503000",
          "143353.519000",
          "143353.519000",
          "143353.519000",
          "143353.519000",
          "143353.519000",
          "143353.519000",
          "143353.535000",
          "143353.535000",
          "143353.535000",
          "143433.488000",
          "143433.488000",
          "143433.488000",
          "143433.488000",
          "143433.488000",
          "143433.488000",
          "143433.488000",
          "143433.503000",
          "143433.503000",
          "143433.503000",
          "143433.519000",
          "143433.519000",
          "143433.519000",
          "143433.519000",
          "143433.519000",
          "143433.519000",
          "143433.519000",
          "143433.535000",
          "143433.535000",
          "143433.535000",
          "143513.472000",
          "143513.472000",
          "143513.472000",
          "143513.472000",
          "143513.488000",
          "143513.488000",
          "143513.488000",
          "143513.488000",
          "143513.488000",
          "143513.488000",
          "143513.503000",
          "143513.503000",
          "143513.503000",
          "143513.503000",
          "143513.503000",
          "143513.503000",
          "143513.503000",
          "143513.519000",
          "143513.519000",
          "143513.519000",
          "143553.472000",
          "143553.472000",
          "143553.472000",
          "143553.472000",
          "143553.488000",
          "143553.488000",
          "143553.488000",
          "143553.488000",
          "143553.488000",
          "143553.488000",
          "143553.488000",
          "143553.503000",
          "143553.503000",
          "143553.503000",
          "143553.503000",
          "143553.503000",
          "143553.503000",
          "143553.519000",
          "143553.519000",
          "143553.519000",
          "143633.472000",
          "143633.472000",
          "143633.472000",
          "143633.472000",
          "143633.488000",
          "143633.488000",
          "143633.488000",
          "143633.488000",
          "143633.488000",
          "143633.488000",
          "143633.503000",
          "143633.503000",
          "143633.503000",
          "143633.503000",
          "143633.503000",
          "143633.519000",
          "143633.519000",
          "143633.519000",
          "143633.535000",
          "143633.535000",
          "143639.722000",
          "143639.722000",
          "143639.722000",
          "143639.738000"
        ],
        "InstanceCreationTime": [
          "143153.488000",
          "143153.503000",
          "143153.503000",
          "143153.503000",
          "143153.519000",
          "143153.519000",
          "143153.519000",
          "143153.519000",
          "143153.519000",
          "143153.519000",
          "143153.519000",
          "143153.535000",
          "143153.535000",
          "143153.535000",
          "143153.535000",
          "143153.535000",
          "143153.535000",
          "143153.550000",
          "143153.550000",
          "143153.550000",
          "143233.488000",
          "143233.488000",
          "143233.488000",
          "143233.488000",
          "143233.488000",
          "143233.488000",
          "143233.488000",
          "143233.503000",
          "143233.503000",
          "143233.503000",
          "143233.519000",
          "143233.519000",
          "143233.519000",
          "143233.519000",
          "143233.519000",
          "143233.519000",
          "143233.535000",
          "143233.535000",
          "143233.535000",
          "143233.535000",
          "143313.488000",
          "143313.488000",
          "143313.488000",
          "143313.488000",
          "143313.488000",
          "143313.488000",
          "143313.488000",
          "143313.503000",
          "143313.503000",
          "143313.503000",
          "143313.519000",
          "143313.519000",
          "143313.519000",
          "143313.519000",
          "143313.519000",
          "143313.535000",
          "143313.535000",
          "143313.535000",
          "143313.535000",
          "143313.535000",
          "143353.488000",
          "143353.488000",
          "143353.488000",
          "143353.488000",
          "143353.488000",
          "143353.488000",
          "143353.488000",
          "143353.503000",
          "143353.503000",
          "143353.503000",
          "143353.503000",
          "143353.519000",
          "143353.519000",
          "143353.519000",
          "143353.519000",
          "143353.519000",
          "143353.519000",
          "143353.535000",
          "143353.535000",
          "143353.535000",
          "143433.488000",
          "143433.488000",
          "143433.488000",
          "143433.488000",
          "143433.488000",
          "143433.488000",
          "143433.488000",
          "143433.503000",
          "143433.503000",
          "143433.503000",
          "143433.519000",
          "143433.519000",
          "143433.519000",
          "143433.519000",
          "143433.519000",
          "143433.519000",
          "143433.519000",
          "143433.535000",
          "143433.535000",
          "143433.535000",
          "143513.472000",
          "143513.472000",
          "143513.472000",
          "143513.472000",
          "143513.488000",
          "143513.488000",
          "143513.488000",
          "143513.488000",
          "143513.488000",
          "143513.488000",
          "143513.503000",
          "143513.503000",
          "143513.503000",
          "143513.503000",
          "143513.503000",
          "143513.503000",
          "143513.503000",
          "143513.519000",
          "143513.519000",
          "143513.519000",
          "143553.472000",
          "143553.472000",
          "143553.472000",
          "143553.472000",
          "143553.488000",
          "143553.488000",
          "143553.488000",
          "143553.488000",
          "143553.488000",
          "143553.488000",
          "143553.488000",
          "143553.503000",
          "143553.503000",
          "143553.503000",
          "143553.503000",
          "143553.503000",
          "143553.503000",
          "143553.519000",
          "143553.519000",
          "143553.519000",
          "143633.472000",
          "143633.472000",
          "143633.472000",
          "143633.472000",
          "143633.488000",
          "143633.488000",
          "143633.488000",
          "143633.488000",
          "143633.488000",
          "143633.488000",
          "143633.503000",
          "143633.503000",
          "143633.503000",
          "143633.503000",
          "143633.503000",
          "143633.519000",
          "143633.519000",
          "143633.519000",
          "143633.535000",
          "143633.535000",
          "143639.722000",
          "143639.722000",
          "143639.722000",
          "143639.738000"
        ],
        "InstanceNumber": [
          1,
          2,
          3,
          4,
          5,
          6,
          7,
          8,
          9,
          10,
          11,
          12,
          13,
          14,
          15,
          16,
          17,
          18,
          19,
          20,
          21,
          22,
          23,
          24,
          25,
          26,
          27,
          28,
          29,
          30,
          31,
          32,
          33,
          34,
          35,
          36,
          37,
          38,
          39,
          40,
          41,
          42,
          43,
          44,
          45,
          46,
          47,
          48,
          49,
          50,
          51,
          52,
          53,
          54,
          55,
          56,
          57,
          58,
          59,
          60,
          61,
          62,
          63,
          64,
          65,
          66,
          67,
          68,
          69,
          70,
          71,
          72,
          73,
          74,
          75,
          76,
          77,
          78,
          79,
          80,
          81,
          82,
          83,
          84,
          85,
          86,
          87,
          88,
          89,
          90,
          91,
          92,
          93,
          94,
          95,
          96,
          97,
          98,
          99,
          100,
          101,
          102,
          103,
          104,
          105,
          106,
          107,
          108,
          109,
          110,
          111,
          112,
          113,
          114,
          115,
          116,
          117,
          118,
          119,
          120,
          121,
          122,
          123,
          124,
          125,
          126,
          127,
          128,
          129,
          130,
          131,
          132,
          133,
          134,
          135,
          136,
          137,
          138,
          139,
          140,
          141,
          142,
          143,
          144,
          145,
          146,
          147,
          148,
          149,
          150,
          151,
          152,
          153,
          154,
          155,
          156,
          157,
          158,
          159,
          160,
          161,
          162,
          163,
          164
        ],
        "WindowCenter": [
          1050.0,
          1048.0,
          1047.0,
          1049.0,
          1046.0,
          1047.0,
          1049.0,
          1048.0,
          1048.0,
          1050.0,
          1048.0,
          1048.0,
          1050.0,
          1049.0,
          1049.0,
          1050.0,
          1048.0,
          1049.0,
          1051.0,
          1048.0,
          1049.0,
          1050.0,
          1051.0,
          1048.0,
          1047.0,
          1049.0,
          1048.0,
          1051.0,
          1048.0,
          1050.0,
          1051.0,
          1050.0,
          1054.0,
          1055.0,
          1051.0,
          1052.0,
          1050.0,
          1050.0,
          1052.0,
          1051.0,
          1054.0,
          1052.0,
          1052.0,
          1053.0,
          1050.0,
          1051.0,
          1052.0,
          1051.0,
          1052.0,
          1050.0,
          1048.0,
          1049.0,
          1052.0,
          1050.0,
          1050.0,
          1049.0,
          1051.0,
          1051.0,
          1051.0,
          1050.0,
          1050.0,
          1050.0,
          1049.0,
          1050.0,
          1050.0,
          1050.0,
          1051.0,
          1051.0,
          1052.0,
          1051.0,
          1049.0,
          1051.0,
          1052.0,
          1053.0,
          1051.0,
          1051.0,
          1053.0,
          1051.0,
          1051.0,
          1050.0,
          1050.0,
          1049.0,
          1051.0,
          1052.0,
          1048.0,
          1047.0,
          1049.0,
          1051.0,
          1051.0,
          1050.0,
          1052.0,
          1049.0,
          1050.0,
          1052.0,
          1050.0,
          1050.0,
          1049.0,
          1048.0,
          1050.0,
          1050.0,
          1052.0,
          1049.0,
          1050.0,
          1049.0,
          1049.0,
          1049.0,
          1051.0,
          1052.0,
          1053.0,
          1053.0,
          1051.0,
          1049.0,
          1049.0,
          1051.0,
          1050.0,
          1051.0,
          1048.0,
          1049.0,
          1049.0,
          1050.0,
          1049.0,
          1049.0,
          1050.0,
          1051.0,
          1050.0,
          1051.0,
          1050.0,
          1050.0,
          1052.0,
          1052.0,
          1052.0,
          1050.0,
          1051.0,
          1052.0,
          1049.0,
          1049.0,
          1050.0,
          1049.0,
          1049.0,
          1048.0,
          1049.0,
          1051.0,
          1051.0,
          1051.0,
          1050.0,
          1051.0,
          1049.0,
          1049.0,
          1051.0,
          1050.0,
          1050.0,
          1053.0,
          1052.0,
          1053.0,
          1050.0,
          1050.0,
          1051.0,
          1051.0,
          1051.0,
          1052.0,
          1053.0,
          1053.0,
          1055.0,
          1056.0
        ],
        "WindowWidth": [
          2795.0,
          2787.0,
          2787.0,
          2788.0,
          2784.0,
          2787.0,
          2794.0,
          2785.0,
          2791.0,
          2793.0,
          2788.0,
          2792.0,
          2799.0,
          2790.0,
          2795.0,
          2795.0,
          2788.0,
          2796.0,
          2797.0,
          2785.0,
          2786.0,
          2797.0,
          2798.0,
          2787.0,
          2784.0,
          2794.0,
          2792.0,
          2801.0,
          2790.0,
          2799.0,
          2796.0,
          2795.0,
          2808.0,
          2806.0,
          2797.0,
          2799.0,
          2786.0,
          2795.0,
          2800.0,
          2798.0,
          2803.0,
          2797.0,
          2795.0,
          2803.0,
          2793.0,
          2790.0,
          2801.0,
          2799.0,
          2800.0,
          2790.0,
          2786.0,
          2787.0,
          2796.0,
          2792.0,
          2790.0,
          2787.0,
          2800.0,
          2791.0,
          2799.0,
          2792.0,
          2786.0,
          2794.0,
          2783.0,
          2785.0,
          2792.0,
          2788.0,
          2798.0,
          2791.0,
          2798.0,
          2791.0,
          2789.0,
          2796.0,
          2795.0,
          2804.0,
          2793.0,
          2798.0,
          2797.0,
          2794.0,
          2796.0,
          2788.0,
          2783.0,
          2793.0,
          2793.0,
          2791.0,
          2778.0,
          2780.0,
          2793.0,
          2794.0,
          2794.0,
          2790.0,
          2799.0,
          2791.0,
          2792.0,
          2800.0,
          2792.0,
          2795.0,
          2790.0,
          2786.0,
          2797.0,
          2789.0,
          2800.0,
          2785.0,
          2795.0,
          2786.0,
          2782.0,
          2792.0,
          2794.0,
          2802.0,
          2802.0,
          2798.0,
          2792.0,
          2781.0,
          2783.0,
          2795.0,
          2786.0,
          2791.0,
          2780.0,
          2787.0,
          2793.0,
          2784.0,
          2787.0,
          2785.0,
          2791.0,
          2789.0,
          2789.0,
          2794.0,
          2787.0,
          2789.0,
