{
  "aor": 0.0010715243902439026,
  "aqi": 0.0054937859146341455,
  "bids_meta": {
    "AcquisitionMatrixPE": 96,
    "AcquisitionNumber": 1,
    "AcquisitionTime": "15:10:41.485000",
    "BandwidthPerPixelPhaseEncode": 52.083,
    "BaseResolution": 96,
    "BodyPartExamined": "HEAD",
    "ConversionSoftware": "dcm2niix",
    "ConversionSoftwareVersion": "v1.0.20180622 GCC6.3.0",
    "DerivedVendorReportedEchoSpacing": 0.000600004,
    "DeviceSerialNumber": "18926",
    "DwellTime": 2.6e-06,
    "EchoTime": 0.025,
    "EffectiveEchoSpacing": 0.000200001,
    "FlipAngle": 50,
    "ImageOrientationPatientDICOM": [
      0.999992,
      0.00067012,
      0.00404905,
      2.11009e-10,
      0.98658,
      -0.16328
    ],
    "ImageType": [
      "ORIGINAL",
      "PRIMARY",
      "M",
      "ND",
      "ECHO",
      "00",
      "MOSAIC"
    ],
    "InPlanePhaseEncodingDirectionDICOM": "ROW",
    "InstitutionName": "NIMH",
    "InstitutionalDepartmentName": "Department",
    "MRAcquisitionType": "2D",
    "MagneticFieldStrength": 6.98,
    "Manufacturer": "Siemens",
    "ManufacturersModelName": "Investigational_Device_7T",
    "Modality": "MR",
    "ParallelReductionFactorInPlane": 3,
    "PartialFourier": 1,
    "PatientPosition": "HFS",
    "PercentPhaseFOV": 100,
    "PhaseEncodingDirection": "i",
    "PhaseEncodingSteps": 94,
    "PhaseResolution": 1,
    "PixelBandwidth": 2003,
    "ProcedureStepDescription": "UserProtocols_gonzalez",
    "ProtocolName": "NIH_EPI_2.0iso_TR2_Run09",
    "PulseSequenceDetails": "%CustomerSeq%_inati_nih_epi",
    "ReceiveCoilName": "32Ch_Head_7T",
    "ReconMatrixPE": 96,
    "RepetitionTime": 2,
    "SAR": 0.081572,
    "ScanningSequence": "EP",
    "SequenceName": "epfid2d1_96",
    "SequenceVariant": "SK",
    "SeriesDescription": "NIH_EPI_2.0iso_TR2_Run09",
    "SeriesNumber": 13,
    "ShimSetting": [
      -121,
      182,
      1360,
      1939,
      -100,
      294,
      615,
      -242
    ],
    "SliceThickness": 2,
    "SliceTiming": [
      1.005,
      0,
      1.0425,
      0.0375,
      1.0775,
      0.075,
      1.115,
      0.1125,
      1.1525,
      0.15,
      1.19,
      0.1875,
      1.2275,
      0.2225,
      1.265,
      0.26,
      1.3025,
      0.2975,
      1.34,
      0.335,
      1.375,
      0.3725,
      1.4125,
      0.41,
      1.45,
      0.4475,
      1.4875,
      0.485,
      1.525,
      0.52,
      1.5625,
      0.5575,
      1.6,
      0.595,
      1.6375,
      0.6325,
      1.6725,
      0.67,
      1.71,
      0.7075,
      1.7475,
      0.745,
      1.785,
      0.7825,
      1.8225,
      0.8175,
      1.86,
      0.855,
      1.8975,
      0.8925,
      1.935,
      0.93,
      1.97,
      0.9675
    ],
    "SoftwareVersions": "syngo_MR_B17",
    "SpacingBetweenSlices": 2,
    "StationName": "FMRIFD7T",
    "TaskName": "FullFovNoAttentionTask",
    "TotalReadoutTime": 0.0190001,
    "TxRefAmp": 285,
    "dataset": "ds001555",
    "dcmmeta_affine": [
      [
        -1.9999831914901733,
        4.2201880878778297e-10,
        0.008208253420889378,
        95.76705169677734
      ],
      [
        -0.0013402394251897931,
        1.973159670829773,
        -0.32655632495880127,
        -62.44346618652344
      ],
      [
        0.008098097518086433,
        0.32655906677246094,
        1.9731431007385254,
        -45.61852264404297
      ],
      [
        0.0,
        0.0,
        0.0,
        1.0
      ]
    ],
    "dcmmeta_reorient_transform": [
      [
        0.0,
        -1.0,
        0.0,
        95.0
      ],
      [
        1.0,
        0.0,
        0.0,
        0.0
      ],
      [
        0.0,
        0.0,
        1.0,
        0.0
      ],
      [
        0.0,
        0.0,
        0.0,
        1.0
      ]
    ],
    "dcmmeta_shape": [
      96,
      96,
      54,
      164
    ],
    "dcmmeta_slice_dim": 2,
    "dcmmeta_version": 0.6,
    "global": {
      "const": {
        "AcquisitionMatrix": [
          0,
          96,
          96,
          0
        ],
        "AngioFlag": "N",
        "BitsAllocated": 16,
        "BitsStored": 12,
        "BodyPartExamined": "HEAD",
        "Columns": 768,
        "EchoNumbers": 1,
        "EchoTime": 25.0,
        "EchoTrainLength": 1,
        "FlipAngle": 50.0,
        "HighBit": 11,
        "ImageOrientationPatient": [
          0.99999157803662,
          0.00067011969073,
          0.00404904870684,
          2.110094e-10,
          0.98657984636313,
          -0.1632795356133
        ],
        "ImagePositionPatient": [
          -767.761392775,
          -788.43868109794,
          92.407477460401
        ],
        "ImageType": [
          "ORIGINAL",
          "PRIMARY",
          "M",
          "ND",
          "ECHO_00",
          "MOSAIC"
        ],
        "ImagedNucleus": "1H",
        "ImagingFrequency": 297.205039,
        "InPlanePhaseEncodingDirection": "ROW",
        "LargestImagePixelValue": 4095,
        "MRAcquisitionType": "2D",
        "MagneticFieldStrength": 6.98,
        "Manufacturer": "SIEMENS",
        "ManufacturerModelName": "Investigational_Device_7T",
        "Modality": "MR",
        "NumberOfAverages": 1.0,
        "NumberOfPhaseEncodingSteps": 94,
        "PercentPhaseFieldOfView": 100.0,
        "PercentSampling": 100.0,
        "PerformedProcedureStepStartTime": "135833.816000",
        "PhotometricInterpretation": "MONOCHROME2",
        "PixelBandwidth": 2003.0,
        "PixelRepresentation": 0,
        "PixelSpacing": [
          2.0,
          2.0
        ],
        "PositionReferenceIndicator": "",
        "ProtocolName": "NIH_EPI_2.0iso_TR2_Run09",
        "RepetitionTime": 2000.0,
        "Rows": 768,
        "SAR": 0.08157201477135,
        "SamplesPerPixel": 1,
        "ScanningSequence": "EP",
        "SequenceName": "epfid2d1_96",
        "SequenceVariant": "SK",
        "SeriesDescription": "NIH_EPI_2.0iso_TR2_Run09",
        "SeriesNumber": 13,
        "SliceLocation": -34.417240375035,
        "SliceThickness": 2.0,
        "SmallestImagePixelValue": 0,
        "SoftwareVersions": "syngo MR B17",
        "SpacingBetweenSlices": 1.9999999829181,
        "TransmitCoilName": "32Ch_Head_7T",
        "VariableFlipAngleFlag": "N",
        "WindowCenterWidthExplanation": "Algo1",
        "dBdt": 0.0
      },
      "slices": {}
    },
    "modality": "bold",
    "run_id": 10,
    "session_id": "02",
    "subject_id": "002",
    "task_id": "FullFovNoAttentionTask",
    "time": {
      "samples": {
        "AcquisitionNumber": [
          1,
          2,
          3,
          4,
          5,
          6,
          7,
          8,
          9,
          10,
          11,
          12,
          13,
          14,
          15,
          16,
          17,
          18,
          19,
          20,
          21,
          22,
          23,
          24,
          25,
          26,
          27,
          28,
          29,
          30,
          31,
          32,
          33,
          34,
          35,
          36,
          37,
          38,
          39,
          40,
          41,
          42,
          43,
          44,
          45,
          46,
          47,
          48,
          49,
          50,
          51,
          52,
          53,
          54,
          55,
          56,
          57,
          58,
          59,
          60,
          61,
          62,
          63,
          64,
          65,
          66,
          67,
          68,
          69,
          70,
          71,
          72,
          73,
          74,
          75,
          76,
          77,
          78,
          79,
          80,
          81,
          82,
          83,
          84,
          85,
          86,
          87,
          88,
          89,
          90,
          91,
          92,
          93,
          94,
          95,
          96,
          97,
          98,
          99,
          100,
          101,
          102,
          103,
          104,
          105,
          106,
          107,
          108,
          109,
          110,
          111,
          112,
          113,
          114,
          115,
          116,
          117,
          118,
          119,
          120,
          121,
          122,
          123,
          124,
          125,
          126,
          127,
          128,
          129,
          130,
          131,
          132,
          133,
          134,
          135,
          136,
          137,
          138,
          139,
          140,
          141,
          142,
          143,
          144,
          145,
          146,
          147,
          148,
          149,
          150,
          151,
          152,
          153,
          154,
          155,
          156,
          157,
          158,
          159,
          160,
          161,
          162,
          163,
          164
        ],
        "AcquisitionTime": [
          "151041.485000",
          "151045.500000",
          "151047.507500",
          "151049.517500",
          "151051.525000",
          "151053.532500",
          "151055.540000",
          "151057.547500",
          "151059.557500",
          "151101.565000",
          "151103.572500",
          "151105.580000",
          "151107.587500",
          "151109.597500",
          "151111.605000",
          "151113.612500",
          "151115.620000",
          "151117.630000",
          "151119.637500",
          "151121.645000",
          "151123.652500",
          "151125.660000",
          "151127.670000",
          "151129.677500",
          "151131.685000",
          "151133.692500",
          "151135.700000",
          "151137.710000",
          "151139.717500",
          "151141.725000",
          "151143.732500",
          "151145.742500",
          "151147.750000",
          "151149.757500",
          "151151.765000",
          "151153.772500",
          "151155.782500",
          "151157.790000",
          "151159.797500",
          "151201.805000",
          "151203.812500",
          "151205.822500",
          "151207.830000",
          "151209.837500",
          "151211.845000",
          "151213.855000",
          "151215.862500",
          "151217.870000",
          "151219.877500",
          "151221.885000",
          "151223.895000",
          "151225.902500",
          "151227.910000",
          "151229.917500",
          "151231.925000",
          "151233.935000",
          "151235.942500",
          "151237.950000",
          "151239.957500",
          "151241.967500",
          "151243.975000",
          "151245.982500",
          "151247.990000",
          "151249.997500",
          "151252.007500",
          "151254.015000",
          "151256.022500",
          "151258.030000",
          "151300.037500",
          "151302.047500",
          "151304.055000",
          "151306.062500",
          "151308.070000",
          "151310.077500",
          "151312.087500",
          "151314.095000",
          "151316.102500",
          "151318.110000",
          "151320.120000",
          "151322.127500",
          "151324.135000",
          "151326.142500",
          "151328.150000",
          "151330.160000",
          "151332.167500",
          "151334.175000",
          "151336.182500",
          "151338.190000",
          "151340.200000",
          "151342.207500",
          "151344.215000",
          "151346.222500",
          "151348.232500",
          "151350.240000",
          "151352.247500",
          "151354.255000",
          "151356.262500",
          "151358.272500",
          "151400.280000",
          "151402.287500",
          "151404.295000",
          "151406.302500",
          "151408.312500",
          "151410.320000",
          "151412.327500",
          "151414.335000",
          "151416.345000",
          "151418.352500",
          "151420.360000",
          "151422.367500",
          "151424.375000",
          "151426.385000",
          "151428.392500",
          "151430.400000",
          "151432.407500",
          "151434.415000",
          "151436.425000",
          "151438.432500",
          "151440.440000",
          "151442.447500",
          "151444.455000",
          "151446.465000",
          "151448.472500",
          "151450.480000",
          "151452.487500",
          "151454.497500",
          "151456.505000",
          "151458.512500",
          "151500.520000",
          "151502.527500",
          "151504.537500",
          "151506.545000",
          "151508.552500",
          "151510.560000",
          "151512.567500",
          "151514.577500",
          "151516.585000",
          "151518.592500",
          "151520.600000",
          "151522.610000",
          "151524.617500",
          "151526.625000",
          "151528.632500",
          "151530.640000",
          "151532.650000",
          "151534.657500",
          "151536.665000",
          "151538.672500",
          "151540.680000",
          "151542.690000",
          "151544.697500",
          "151546.705000",
          "151548.712500",
          "151550.722500",
          "151552.730000",
          "151554.737500",
          "151556.745000",
          "151558.752500",
          "151600.762500",
          "151602.770000",
          "151604.777500",
          "151606.785000",
          "151608.792500",
          "151610.802500"
        ],
        "ContentTime": [
          "151138.550000",
          "151138.550000",
          "151138.566000",
          "151138.566000",
          "151138.566000",
          "151138.566000",
          "151138.566000",
          "151138.566000",
          "151138.566000",
          "151138.582000",
          "151138.582000",
          "151138.582000",
          "151138.582000",
          "151138.582000",
          "151138.582000",
          "151138.597000",
          "151138.597000",
          "151138.597000",
          "151138.597000",
          "151138.597000",
          "151138.597000",
          "151138.597000",
          "151138.613000",
          "151138.613000",
          "151138.613000",
          "151138.613000",
          "151138.613000",
          "151218.535000",
          "151218.550000",
          "151218.550000",
          "151218.550000",
          "151218.550000",
          "151218.550000",
          "151218.550000",
          "151218.566000",
          "151218.566000",
          "151218.566000",
          "151218.566000",
          "151218.566000",
          "151218.566000",
          "151218.582000",
          "151218.582000",
          "151218.582000",
          "151218.582000",
          "151218.582000",
          "151218.597000",
          "151218.597000",
          "151258.535000",
          "151258.550000",
          "151258.550000",
          "151258.550000",
          "151258.550000",
          "151258.550000",
          "151258.550000",
          "151258.566000",
          "151258.566000",
          "151258.566000",
          "151258.582000",
          "151258.582000",
          "151258.582000",
          "151258.582000",
          "151258.582000",
          "151258.582000",
          "151258.582000",
          "151258.597000",
          "151258.597000",
          "151258.597000",
          "151338.535000",
          "151338.550000",
          "151338.550000",
          "151338.550000",
          "151338.550000",
          "151338.550000",
          "151338.550000",
          "151338.566000",
          "151338.566000",
          "151338.566000",
          "151338.566000",
          "151338.566000",
          "151338.566000",
          "151338.566000",
          "151338.582000",
          "151338.582000",
          "151338.582000",
          "151338.582000",
          "151338.582000",
          "151338.582000",
          "151418.535000",
          "151418.550000",
          "151418.550000",
          "151418.550000",
          "151418.566000",
          "151418.566000",
          "151418.566000",
          "151418.566000",
          "151418.582000",
          "151418.582000",
          "151418.582000",
          "151418.582000",
          "151418.582000",
          "151418.582000",
          "151418.597000",
          "151418.597000",
          "151418.597000",
          "151418.597000",
          "151418.597000",
          "151418.597000",
          "151458.535000",
          "151458.535000",
          "151458.535000",
          "151458.535000",
          "151458.550000",
          "151458.550000",
          "151458.550000",
          "151458.566000",
          "151458.566000",
          "151458.566000",
          "151458.566000",
          "151458.566000",
          "151458.566000",
          "151458.582000",
          "151458.582000",
          "151458.582000",
          "151458.582000",
          "151458.582000",
          "151458.582000",
          "151458.597000",
          "151538.535000",
          "151538.535000",
          "151538.535000",
          "151538.535000",
          "151538.550000",
          "151538.550000",
          "151538.550000",
          "151538.550000",
          "151538.550000",
          "151538.550000",
          "151538.550000",
          "151538.566000",
          "151538.566000",
          "151538.566000",
          "151538.566000",
          "151538.566000",
          "151538.566000",
          "151538.582000",
          "151538.582000",
          "151538.582000",
          "151611.644000",
          "151611.644000",
          "151611.644000",
          "151611.644000",
          "151611.660000",
          "151611.660000",
          "151611.660000",
          "151611.660000",
          "151611.660000",
          "151611.660000",
          "151611.675000",
          "151611.675000",
          "151611.675000",
          "151611.675000",
          "151611.675000",
          "151611.675000",
          "151611.691000"
        ],
        "InstanceCreationTime": [
          "151138.550000",
          "151138.550000",
          "151138.566000",
          "151138.566000",
          "151138.566000",
          "151138.566000",
          "151138.566000",
          "151138.566000",
          "151138.566000",
          "151138.582000",
          "151138.582000",
          "151138.582000",
          "151138.582000",
          "151138.582000",
          "151138.582000",
          "151138.597000",
          "151138.597000",
          "151138.597000",
          "151138.597000",
          "151138.597000",
          "151138.597000",
          "151138.597000",
          "151138.613000",
          "151138.613000",
          "151138.613000",
          "151138.613000",
          "151138.613000",
          "151218.535000",
          "151218.550000",
          "151218.550000",
          "151218.550000",
          "151218.550000",
          "151218.550000",
          "151218.550000",
          "151218.566000",
          "151218.566000",
          "151218.566000",
          "151218.566000",
          "151218.566000",
          "151218.566000",
          "151218.582000",
          "151218.582000",
          "151218.582000",
          "151218.582000",
          "151218.582000",
          "151218.597000",
          "151218.597000",
          "151258.535000",
          "151258.550000",
          "151258.550000",
          "151258.550000",
          "151258.550000",
          "151258.550000",
          "151258.550000",
          "151258.566000",
          "151258.566000",
          "151258.566000",
          "151258.582000",
          "151258.582000",
          "151258.582000",
          "151258.582000",
          "151258.582000",
          "151258.582000",
          "151258.582000",
          "151258.597000",
          "151258.597000",
          "151258.597000",
          "151338.535000",
          "151338.550000",
          "151338.550000",
          "151338.550000",
          "151338.550000",
          "151338.550000",
          "151338.550000",
          "151338.566000",
          "151338.566000",
          "151338.566000",
          "151338.566000",
          "151338.566000",
          "151338.566000",
          "151338.566000",
          "151338.582000",
          "151338.582000",
          "151338.582000",
          "151338.582000",
          "151338.582000",
          "151338.582000",
          "151418.535000",
          "151418.550000",
          "151418.550000",
          "151418.550000",
          "151418.566000",
          "151418.566000",
          "151418.566000",
          "151418.566000",
          "151418.582000",
          "151418.582000",
          "151418.582000",
          "151418.582000",
          "151418.582000",
          "151418.582000",
          "151418.597000",
          "151418.597000",
          "151418.597000",
          "151418.597000",
          "151418.597000",
          "151418.597000",
          "151458.535000",
          "151458.535000",
          "151458.535000",
          "151458.535000",
          "151458.550000",
          "151458.550000",
          "151458.550000",
          "151458.566000",
          "151458.566000",
          "151458.566000",
          "151458.566000",
          "151458.566000",
          "151458.566000",
          "151458.582000",
          "151458.582000",
          "151458.582000",
          "151458.582000",
          "151458.582000",
          "151458.582000",
          "151458.597000",
          "151538.535000",
          "151538.535000",
          "151538.535000",
          "151538.535000",
          "151538.550000",
          "151538.550000",
          "151538.550000",
          "151538.550000",
          "151538.550000",
          "151538.550000",
          "151538.550000",
          "151538.566000",
          "151538.566000",
          "151538.566000",
          "151538.566000",
          "151538.566000",
          "151538.566000",
          "151538.582000",
          "151538.582000",
          "151538.582000",
          "151611.644000",
          "151611.644000",
          "151611.644000",
          "151611.644000",
          "151611.660000",
          "151611.660000",
          "151611.660000",
          "151611.660000",
          "151611.660000",
          "151611.660000",
          "151611.675000",
          "151611.675000",
          "151611.675000",
          "151611.675000",
          "151611.675000",
          "151611.675000",
          "151611.691000"
        ],
        "InstanceNumber": [
          1,
          2,
          3,
          4,
          5,
          6,
          7,
          8,
          9,
          10,
          11,
          12,
          13,
          14,
          15,
          16,
          17,
          18,
          19,
          20,
          21,
          22,
          23,
          24,
          25,
          26,
          27,
          28,
          29,
          30,
          31,
          32,
          33,
          34,
          35,
          36,
          37,
          38,
          39,
          40,
          41,
          42,
          43,
          44,
          45,
          46,
          47,
          48,
          49,
          50,
          51,
          52,
          53,
          54,
          55,
          56,
          57,
          58,
          59,
          60,
          61,
          62,
          63,
          64,
          65,
          66,
          67,
          68,
          69,
          70,
          71,
          72,
          73,
          74,
          75,
          76,
          77,
          78,
          79,
          80,
          81,
          82,
          83,
          84,
          85,
          86,
          87,
          88,
          89,
          90,
          91,
          92,
          93,
          94,
          95,
          96,
          97,
          98,
          99,
          100,
          101,
          102,
          103,
          104,
          105,
          106,
          107,
          108,
          109,
          110,
          111,
          112,
          113,
          114,
          115,
          116,
          117,
          118,
          119,
          120,
          121,
          122,
          123,
          124,
          125,
          126,
          127,
          128,
          129,
          130,
          131,
          132,
          133,
          134,
          135,
          136,
          137,
          138,
          139,
          140,
          141,
          142,
          143,
          144,
          145,
          146,
          147,
          148,
          149,
          150,
          151,
          152,
          153,
          154,
          155,
          156,
          157,
          158,
          159,
          160,
          161,
          162,
          163,
          164
        ],
        "WindowCenter": [
          1071.0,
          1070.0,
          1076.0,
          1076.0,
          1072.0,
          1072.0,
          1072.0,
          1071.0,
          1073.0,
          1071.0,
          1069.0,
          1073.0,
          1071.0,
          1072.0,
          1072.0,
          1071.0,
          1073.0,
          1072.0,
          1073.0,
          1073.0,
          1070.0,
          1072.0,
          1071.0,
          1070.0,
          1071.0,
          1072.0,
          1071.0,
          1072.0,
          1071.0,
          1070.0,
          1072.0,
          1069.0,
          1071.0,
          1073.0,
          1072.0,
          1070.0,
          1072.0,
          1072.0,
          1072.0,
          1071.0,
          1074.0,
          1074.0,
          1070.0,
          1069.0,
          1072.0,
          1071.0,
          1071.0,
          1073.0,
          1072.0,
          1070.0,
          1073.0,
          1070.0,
          1071.0,
          1072.0,
          1070.0,
          1072.0,
          1072.0,
          1071.0,
          1072.0,
          1071.0,
          1070.0,
          1073.0,
          1072.0,
          1072.0,
          1072.0,
          1071.0,
          1071.0,
          1073.0,
          1072.0,
          1073.0,
          1072.0,
          1071.0,
          1075.0,
          1077.0,
          1076.0,
          1074.0,
          1073.0,
          1076.0,
          1073.0,
          1070.0,
          1071.0,
          1068.0,
          1067.0,
          1071.0,
          1071.0,
          1070.0,
          1071.0,
          1070.0,
          1070.0,
          1070.0,
          1070.0,
          1071.0,
          1072.0,
          1071.0,
          1073.0,
          1073.0,
          1071.0,
          1071.0,
          1071.0,
          1073.0,
          1073.0,
          1072.0,
          1074.0,
          1072.0,
          1071.0,
          1071.0,
          1070.0,
          1072.0,
          1072.0,
          1070.0,
          1074.0,
          1074.0,
          1071.0,
          1074.0,
          1074.0,
          1071.0,
          1072.0,
          1074.0,
          1073.0,
          1070.0,
          1069.0,
          1072.0,
          1072.0,
          1070.0,
          1071.0,
          1072.0,
          1071.0,
          1074.0,
          1073.0,
          1072.0,
          1073.0,
          1074.0,
          1075.0,
          1075.0,
          1074.0,
          1071.0,
          1072.0,
          1075.0,
          1074.0,
          1073.0,
          1071.0,
          1072.0,
          1075.0,
          1074.0,
          1074.0,
          1073.0,
          1072.0,
          1076.0,
          1072.0,
          1072.0,
          1073.0,
          1072.0,
          1073.0,
          1074.0,
          1073.0,
          1072.0,
          1073.0,
          1073.0,
          1071.0,
          1073.0,
          1074.0,
          1076.0,
          1075.0,
          1075.0
        ],
        "WindowWidth": [
          2875.0,
          2879.0,
          2896.0,
          2889.0,
          2878.0,
          2884.0,
          2880.0,
          2880.0,
          2886.0,
          2874.0,
          2878.0,
          2888.0,
          2878.0,
          2885.0,
          2881.0,
          2879.0,
          2887.0,
          2878.0,
          2888.0,
          2880.0,
          2869.0,
          2885.0,
          2878.0,
          2867.0,
          2883.0,
          2875.0,
          2870.0,
          2881.0,
          2873.0,
          2880.0,
          2881.0,
          2869.0,
          2880.0,
          2881.0,
          2874.0,
          2880.0,
          2889.0,
          2884.0,
          2882.0,
          2878.0,
          2889.0,
          2886.0,
          2872.0,
          2878.0,
          2886.0,
          2873.0,
          2878.0,
          2887.0,
          2878.0,
          2876.0,
          2885.0,
          2875.0,
          2878.0,
          2881.0,
          2874.0,
          2885.0,
          2881.0,
          2874.0,
          2888.0,
          2879.0,
          2875.0,
          2889.0,
          2880.0,
          2878.0,
          2885.0,
          2875.0,
          2877.0,
          2882.0,
          2878.0,
          2889.0,
          2878.0,
          2874.0,
          2892.0,
          2892.0,
          2891.0,
          2880.0,
          2880.0,
          2900.0,
          2883.0,
          2877.0,
          2880.0,
          2869.0,
          2868.0,
          2889.0,
          2879.0,
          2871.0,
          2880.0,
          2872.0,
          2879.0,
          2880.0,
          2875.0,
          2882.0,
          2879.0,
          2869.0,
          2888.0,
          2885.0,
          2879.0,
          2877.0,
          2876.0,
          2889.0,
          2880.0,
          2886.0,
          2892.0,
          2878.0,
          2881.0,
          2879.0,
          2879.0,
          2883.0,
          2877.0,
          2876.0,
          2894.0,
          2884.0,
          2875.0,
          2890.0,
          2888.0,
          2875.0,
          2889.0,
          2887.0,
          2884.0,
          2876.0,
          2870.0,
          2887.0,
          2885.0,
          2868.0,
          2879.0,
          2882.0,
          2876.0,
          2892.0,
