{
  "aor": 0.0016984146341463414,
  "aqi": 0.007155158963414635,
  "bids_meta": {
    "AcquisitionMatrixPE": 96,
    "AcquisitionNumber": 1,
    "AcquisitionTime": "15:04:12.235000",
    "BandwidthPerPixelPhaseEncode": 52.083,
    "BaseResolution": 96,
    "BodyPartExamined": "HEAD",
    "ConversionSoftware": "dcm2niix",
    "ConversionSoftwareVersion": "v1.0.20180622 GCC6.3.0",
    "DerivedVendorReportedEchoSpacing": 0.000600004,
    "DeviceSerialNumber": "18926",
    "DwellTime": 2.6e-06,
    "EchoTime": 0.025,
    "EffectiveEchoSpacing": 0.000200001,
    "FlipAngle": 50,
    "ImageOrientationPatientDICOM": [
      0.999992,
      0.00067012,
      0.00404905,
      2.11009e-10,
      0.98658,
      -0.16328
    ],
    "ImageType": [
      "ORIGINAL",
      "PRIMARY",
      "M",
      "ND",
      "ECHO",
      "00",
      "MOSAIC"
    ],
    "InPlanePhaseEncodingDirectionDICOM": "ROW",
    "InstitutionName": "NIMH",
    "InstitutionalDepartmentName": "Department",
    "MRAcquisitionType": "2D",
    "MagneticFieldStrength": 6.98,
    "Manufacturer": "Siemens",
    "ManufacturersModelName": "Investigational_Device_7T",
    "Modality": "MR",
    "ParallelReductionFactorInPlane": 3,
    "PartialFourier": 1,
    "PatientPosition": "HFS",
    "PercentPhaseFOV": 100,
    "PhaseEncodingDirection": "i",
    "PhaseEncodingSteps": 94,
    "PhaseResolution": 1,
    "PixelBandwidth": 2003,
    "ProcedureStepDescription": "UserProtocols_gonzalez",
    "ProtocolName": "NIH_EPI_2.0iso_TR2_Run08.bis",
    "PulseSequenceDetails": "%CustomerSeq%_inati_nih_epi",
    "ReceiveCoilName": "32Ch_Head_7T",
    "ReconMatrixPE": 96,
    "RepetitionTime": 2,
    "SAR": 0.081572,
    "ScanningSequence": "EP",
    "SequenceName": "epfid2d1_96",
    "SequenceVariant": "SK",
    "SeriesDescription": "NIH_EPI_2.0iso_TR2_Run08.bis",
    "SeriesNumber": 12,
    "ShimSetting": [
      -121,
      182,
      1360,
      1939,
      -100,
      294,
      615,
      -242
    ],
    "SliceThickness": 2,
    "SliceTiming": [
      1.005,
      0,
      1.0425,
      0.0375,
      1.08,
      0.075,
      1.115,
      0.1125,
      1.1525,
      0.15,
      1.19,
      0.1875,
      1.2275,
      0.225,
      1.265,
      0.26,
      1.3025,
      0.2975,
      1.34,
      0.335,
      1.3775,
      0.3725,
      1.4125,
      0.41,
      1.45,
      0.4475,
      1.4875,
      0.485,
      1.525,
      0.52,
      1.5625,
      0.5575,
      1.6,
      0.595,
      1.6375,
      0.6325,
      1.6725,
      0.67,
      1.71,
      0.7075,
      1.7475,
      0.745,
      1.785,
      0.7825,
      1.8225,
      0.8175,
      1.86,
      0.855,
      1.8975,
      0.8925,
      1.935,
      0.93,
      1.97,
      0.9675
    ],
    "SoftwareVersions": "syngo_MR_B17",
    "SpacingBetweenSlices": 2,
    "StationName": "FMRIFD7T",
    "TaskName": "FullFovNoAttentionTask",
    "TotalReadoutTime": 0.0190001,
    "TxRefAmp": 285,
    "dataset": "ds001555",
    "dcmmeta_affine": [
      [
        -1.9999831914901733,
        4.2201880878778297e-10,
        0.008208253420889378,
        95.76705169677734
      ],
      [
        -0.0013402394251897931,
        1.973159670829773,
        -0.32655632495880127,
        -62.44346618652344
      ],
      [
        0.008098097518086433,
        0.32655906677246094,
        1.9731431007385254,
        -45.61852264404297
      ],
      [
        0.0,
        0.0,
        0.0,
        1.0
      ]
    ],
    "dcmmeta_reorient_transform": [
      [
        0.0,
        -1.0,
        0.0,
        95.0
      ],
      [
        1.0,
        0.0,
        0.0,
        0.0
      ],
      [
        0.0,
        0.0,
        1.0,
        0.0
      ],
      [
        0.0,
        0.0,
        0.0,
        1.0
      ]
    ],
    "dcmmeta_shape": [
      96,
      96,
      54,
      164
    ],
    "dcmmeta_slice_dim": 2,
    "dcmmeta_version": 0.6,
    "global": {
      "const": {
        "AcquisitionMatrix": [
          0,
          96,
          96,
          0
        ],
        "AngioFlag": "N",
        "BitsAllocated": 16,
        "BitsStored": 12,
        "BodyPartExamined": "HEAD",
        "Columns": 768,
        "EchoNumbers": 1,
        "EchoTime": 25.0,
        "EchoTrainLength": 1,
        "FlipAngle": 50.0,
        "HighBit": 11,
        "ImageOrientationPatient": [
          0.99999157803662,
          0.00067011969073,
          0.00404904870684,
          2.110094e-10,
          0.98657984636313,
          -0.1632795356133
        ],
        "ImagePositionPatient": [
          -767.761392775,
          -788.43868109794,
          92.407477460401
        ],
        "ImageType": [
          "ORIGINAL",
          "PRIMARY",
          "M",
          "ND",
          "ECHO_00",
          "MOSAIC"
        ],
        "ImagedNucleus": "1H",
        "ImagingFrequency": 297.205025,
        "InPlanePhaseEncodingDirection": "ROW",
        "LargestImagePixelValue": 4095,
        "MRAcquisitionType": "2D",
        "MagneticFieldStrength": 6.98,
        "Manufacturer": "SIEMENS",
        "ManufacturerModelName": "Investigational_Device_7T",
        "Modality": "MR",
        "NumberOfAverages": 1.0,
        "NumberOfPhaseEncodingSteps": 94,
        "PercentPhaseFieldOfView": 100.0,
        "PercentSampling": 100.0,
        "PerformedProcedureStepStartTime": "135833.816000",
        "PhotometricInterpretation": "MONOCHROME2",
        "PixelBandwidth": 2003.0,
        "PixelRepresentation": 0,
        "PixelSpacing": [
          2.0,
          2.0
        ],
        "PositionReferenceIndicator": "",
        "ProtocolName": "NIH_EPI_2.0iso_TR2_Run08.bis",
        "RepetitionTime": 2000.0,
        "Rows": 768,
        "SAR": 0.08157201477135,
        "SamplesPerPixel": 1,
        "ScanningSequence": "EP",
        "SequenceName": "epfid2d1_96",
        "SequenceVariant": "SK",
        "SeriesDescription": "NIH_EPI_2.0iso_TR2_Run08.bis",
        "SeriesNumber": 12,
        "SliceLocation": -34.417240375035,
        "SliceThickness": 2.0,
        "SmallestImagePixelValue": 0,
        "SoftwareVersions": "syngo MR B17",
        "SpacingBetweenSlices": 1.9999999829181,
        "TransmitCoilName": "32Ch_Head_7T",
        "VariableFlipAngleFlag": "N",
        "WindowCenterWidthExplanation": "Algo1",
        "dBdt": 0.0
      },
      "slices": {}
    },
    "modality": "bold",
    "run_id": 9,
    "session_id": "02",
    "subject_id": "002",
    "task_id": "FullFovNoAttentionTask",
    "time": {
      "samples": {
        "AcquisitionNumber": [
          1,
          2,
          3,
          4,
          5,
          6,
          7,
          8,
          9,
          10,
          11,
          12,
          13,
          14,
          15,
          16,
          17,
          18,
          19,
          20,
          21,
          22,
          23,
          24,
          25,
          26,
          27,
          28,
          29,
          30,
          31,
          32,
          33,
          34,
          35,
          36,
          37,
          38,
          39,
          40,
          41,
          42,
          43,
          44,
          45,
          46,
          47,
          48,
          49,
          50,
          51,
          52,
          53,
          54,
          55,
          56,
          57,
          58,
          59,
          60,
          61,
          62,
          63,
          64,
          65,
          66,
          67,
          68,
          69,
          70,
          71,
          72,
          73,
          74,
          75,
          76,
          77,
          78,
          79,
          80,
          81,
          82,
          83,
          84,
          85,
          86,
          87,
          88,
          89,
          90,
          91,
          92,
          93,
          94,
          95,
          96,
          97,
          98,
          99,
          100,
          101,
          102,
          103,
          104,
          105,
          106,
          107,
          108,
          109,
          110,
          111,
          112,
          113,
          114,
          115,
          116,
          117,
          118,
          119,
          120,
          121,
          122,
          123,
          124,
          125,
          126,
          127,
          128,
          129,
          130,
          131,
          132,
          133,
          134,
          135,
          136,
          137,
          138,
          139,
          140,
          141,
          142,
          143,
          144,
          145,
          146,
          147,
          148,
          149,
          150,
          151,
          152,
          153,
          154,
          155,
          156,
          157,
          158,
          159,
          160,
          161,
          162,
          163,
          164
        ],
        "AcquisitionTime": [
          "150412.235000",
          "150416.250000",
          "150418.257500",
          "150420.267500",
          "150422.275000",
          "150424.282500",
          "150426.290000",
          "150428.300000",
          "150430.307500",
          "150432.315000",
          "150434.322500",
          "150436.330000",
          "150438.340000",
          "150440.347500",
          "150442.355000",
          "150444.362500",
          "150446.370000",
          "150448.380000",
          "150450.387500",
          "150452.395000",
          "150454.402500",
          "150456.410000",
          "150458.420000",
          "150500.427500",
          "150502.435000",
          "150504.442500",
          "150506.452500",
          "150508.460000",
          "150510.467500",
          "150512.475000",
          "150514.482500",
          "150516.492500",
          "150518.500000",
          "150520.507500",
          "150522.515000",
          "150524.522500",
          "150526.532500",
          "150528.540000",
          "150530.547500",
          "150532.555000",
          "150534.565000",
          "150536.572500",
          "150538.580000",
          "150540.587500",
          "150542.595000",
          "150544.605000",
          "150546.612500",
          "150548.620000",
          "150550.627500",
          "150552.635000",
          "150554.645000",
          "150556.652500",
          "150558.660000",
          "150600.667500",
          "150602.677500",
          "150604.685000",
          "150606.692500",
          "150608.700000",
          "150610.707500",
          "150612.717500",
          "150614.725000",
          "150616.732500",
          "150618.740000",
          "150620.747500",
          "150622.757500",
          "150624.765000",
          "150626.772500",
          "150628.780000",
          "150630.787500",
          "150632.797500",
          "150634.805000",
          "150636.812500",
          "150638.820000",
          "150640.830000",
          "150642.837500",
          "150644.845000",
          "150646.852500",
          "150648.860000",
          "150650.870000",
          "150652.877500",
          "150654.885000",
          "150656.892500",
          "150658.900000",
          "150700.910000",
          "150702.917500",
          "150704.925000",
          "150706.932500",
          "150708.942500",
          "150710.950000",
          "150712.957500",
          "150714.965000",
          "150716.972500",
          "150718.982500",
          "150720.990000",
          "150722.997500",
          "150725.005000",
          "150727.012500",
          "150729.022500",
          "150731.030000",
          "150733.037500",
          "150735.045000",
          "150737.055000",
          "150739.062500",
          "150741.070000",
          "150743.077500",
          "150745.085000",
          "150747.095000",
          "150749.102500",
          "150751.110000",
          "150753.117500",
          "150755.125000",
          "150757.135000",
          "150759.142500",
          "150801.150000",
          "150803.157500",
          "150805.167500",
          "150807.175000",
          "150809.182500",
          "150811.190000",
          "150813.197500",
          "150815.207500",
          "150817.215000",
          "150819.222500",
          "150821.230000",
          "150823.237500",
          "150825.247500",
          "150827.255000",
          "150829.262500",
          "150831.270000",
          "150833.277500",
          "150835.287500",
          "150837.295000",
          "150839.302500",
          "150841.310000",
          "150843.320000",
          "150845.327500",
          "150847.335000",
          "150849.342500",
          "150851.350000",
          "150853.360000",
          "150855.367500",
          "150857.375000",
          "150859.382500",
          "150901.390000",
          "150903.400000",
          "150905.407500",
          "150907.415000",
          "150909.422500",
          "150911.432500",
          "150913.440000",
          "150915.447500",
          "150917.455000",
          "150919.462500",
          "150921.472500",
          "150923.480000",
          "150925.487500",
          "150927.495000",
          "150929.502500",
          "150931.512500",
          "150933.520000",
          "150935.527500",
          "150937.535000",
          "150939.545000",
          "150941.552500"
        ],
        "ContentTime": [
          "150505.816000",
          "150505.816000",
          "150505.832000",
          "150505.832000",
          "150505.832000",
          "150505.832000",
          "150505.832000",
          "150505.832000",
          "150505.847000",
          "150505.847000",
          "150505.847000",
          "150505.847000",
          "150505.847000",
          "150505.863000",
          "150505.863000",
          "150505.863000",
          "150505.863000",
          "150505.863000",
          "150505.863000",
          "150505.878000",
          "150505.878000",
          "150505.878000",
          "150505.878000",
          "150505.878000",
          "150505.878000",
          "150545.800000",
          "150545.800000",
          "150545.816000",
          "150545.816000",
          "150545.816000",
          "150545.816000",
          "150545.816000",
          "150545.816000",
          "150545.816000",
          "150545.832000",
          "150545.832000",
          "150545.832000",
          "150545.832000",
          "150545.832000",
          "150545.847000",
          "150545.847000",
          "150545.847000",
          "150545.847000",
          "150545.847000",
          "150545.847000",
          "150625.800000",
          "150625.800000",
          "150625.816000",
          "150625.816000",
          "150625.816000",
          "150625.816000",
          "150625.816000",
          "150625.816000",
          "150625.816000",
          "150625.832000",
          "150625.832000",
          "150625.832000",
          "150625.832000",
          "150625.832000",
          "150625.832000",
          "150625.847000",
          "150625.847000",
          "150625.847000",
          "150625.847000",
          "150625.847000",
          "150705.800000",
          "150705.800000",
          "150705.816000",
          "150705.816000",
          "150705.816000",
          "150705.816000",
          "150705.816000",
          "150705.816000",
          "150705.816000",
          "150705.832000",
          "150705.832000",
          "150705.832000",
          "150705.847000",
          "150705.847000",
          "150705.847000",
          "150705.863000",
          "150705.863000",
          "150705.863000",
          "150705.863000",
          "150705.863000",
          "150745.800000",
          "150745.800000",
          "150745.816000",
          "150745.816000",
          "150745.816000",
          "150745.816000",
          "150745.816000",
          "150745.832000",
          "150745.832000",
          "150745.832000",
          "150745.832000",
          "150745.832000",
          "150745.832000",
          "150745.847000",
          "150745.847000",
          "150745.847000",
          "150745.847000",
          "150745.847000",
          "150745.847000",
          "150745.847000",
          "150825.800000",
          "150825.800000",
          "150825.816000",
          "150825.816000",
          "150825.816000",
          "150825.816000",
          "150825.832000",
          "150825.832000",
          "150825.832000",
          "150825.832000",
          "150825.832000",
          "150825.847000",
          "150825.847000",
          "150825.847000",
          "150825.847000",
          "150825.847000",
          "150825.847000",
          "150825.847000",
          "150825.863000",
          "150825.863000",
          "150905.800000",
          "150905.800000",
          "150905.816000",
          "150905.816000",
          "150905.816000",
          "150905.816000",
          "150905.832000",
          "150905.832000",
          "150905.832000",
          "150905.832000",
          "150905.832000",
          "150905.832000",
          "150905.847000",
          "150905.847000",
          "150905.847000",
          "150905.847000",
          "150905.847000",
          "150905.847000",
          "150905.863000",
          "150905.863000",
          "150942.738000",
          "150942.738000",
          "150942.738000",
          "150942.738000",
          "150942.738000",
          "150942.753000",
          "150942.753000",
          "150942.753000",
          "150942.753000",
          "150942.769000",
          "150942.769000",
          "150942.769000",
          "150942.769000",
          "150942.769000",
          "150942.785000",
          "150942.785000",
          "150942.785000",
          "150942.785000",
          "150942.785000"
        ],
        "InstanceCreationTime": [
          "150505.816000",
          "150505.816000",
          "150505.832000",
          "150505.832000",
          "150505.832000",
          "150505.832000",
          "150505.832000",
          "150505.832000",
          "150505.847000",
          "150505.847000",
          "150505.847000",
          "150505.847000",
          "150505.847000",
          "150505.863000",
          "150505.863000",
          "150505.863000",
          "150505.863000",
          "150505.863000",
          "150505.863000",
          "150505.878000",
          "150505.878000",
          "150505.878000",
          "150505.878000",
          "150505.878000",
          "150505.878000",
          "150545.800000",
          "150545.800000",
          "150545.816000",
          "150545.816000",
          "150545.816000",
          "150545.816000",
          "150545.816000",
          "150545.816000",
          "150545.816000",
          "150545.832000",
          "150545.832000",
          "150545.832000",
          "150545.832000",
          "150545.832000",
          "150545.847000",
          "150545.847000",
          "150545.847000",
          "150545.847000",
          "150545.847000",
          "150545.847000",
          "150625.800000",
          "150625.800000",
          "150625.816000",
          "150625.816000",
          "150625.816000",
          "150625.816000",
          "150625.816000",
          "150625.816000",
          "150625.816000",
          "150625.832000",
          "150625.832000",
          "150625.832000",
          "150625.832000",
          "150625.832000",
          "150625.832000",
          "150625.847000",
          "150625.847000",
          "150625.847000",
          "150625.847000",
          "150625.847000",
          "150705.800000",
          "150705.800000",
          "150705.816000",
          "150705.816000",
          "150705.816000",
          "150705.816000",
          "150705.816000",
          "150705.816000",
          "150705.816000",
          "150705.832000",
          "150705.832000",
          "150705.832000",
          "150705.847000",
          "150705.847000",
          "150705.847000",
          "150705.863000",
          "150705.863000",
          "150705.863000",
          "150705.863000",
          "150705.863000",
          "150745.800000",
          "150745.800000",
          "150745.816000",
          "150745.816000",
          "150745.816000",
          "150745.816000",
          "150745.816000",
          "150745.832000",
          "150745.832000",
          "150745.832000",
          "150745.832000",
          "150745.832000",
          "150745.832000",
          "150745.847000",
          "150745.847000",
          "150745.847000",
          "150745.847000",
          "150745.847000",
          "150745.847000",
          "150745.847000",
          "150825.800000",
          "150825.800000",
          "150825.816000",
          "150825.816000",
          "150825.816000",
          "150825.816000",
          "150825.832000",
          "150825.832000",
          "150825.832000",
          "150825.832000",
          "150825.832000",
          "150825.847000",
          "150825.847000",
          "150825.847000",
          "150825.847000",
          "150825.847000",
          "150825.847000",
          "150825.847000",
          "150825.863000",
          "150825.863000",
          "150905.800000",
          "150905.800000",
          "150905.816000",
          "150905.816000",
          "150905.816000",
          "150905.816000",
          "150905.832000",
          "150905.832000",
          "150905.832000",
          "150905.832000",
          "150905.832000",
          "150905.832000",
          "150905.847000",
          "150905.847000",
          "150905.847000",
          "150905.847000",
          "150905.847000",
          "150905.847000",
          "150905.863000",
          "150905.863000",
          "150942.738000",
          "150942.738000",
          "150942.738000",
          "150942.738000",
          "150942.738000",
          "150942.753000",
          "150942.753000",
          "150942.753000",
          "150942.753000",
          "150942.769000",
          "150942.769000",
          "150942.769000",
          "150942.769000",
          "150942.769000",
          "150942.785000",
          "150942.785000",
          "150942.785000",
          "150942.785000",
          "150942.785000"
        ],
        "InstanceNumber": [
          1,
          2,
          3,
          4,
          5,
          6,
          7,
          8,
          9,
          10,
          11,
          12,
          13,
          14,
          15,
          16,
          17,
          18,
          19,
          20,
          21,
          22,
          23,
          24,
          25,
          26,
          27,
          28,
          29,
          30,
          31,
          32,
          33,
          34,
          35,
          36,
          37,
          38,
          39,
          40,
          41,
          42,
          43,
          44,
          45,
          46,
          47,
          48,
          49,
          50,
          51,
          52,
          53,
          54,
          55,
          56,
          57,
          58,
          59,
          60,
          61,
          62,
          63,
          64,
          65,
          66,
          67,
          68,
          69,
          70,
          71,
          72,
          73,
          74,
          75,
          76,
          77,
          78,
          79,
          80,
          81,
          82,
          83,
          84,
          85,
          86,
          87,
          88,
          89,
          90,
          91,
          92,
          93,
          94,
          95,
          96,
          97,
          98,
          99,
          100,
          101,
          102,
          103,
          104,
          105,
          106,
          107,
          108,
          109,
          110,
          111,
          112,
          113,
          114,
          115,
          116,
          117,
          118,
          119,
          120,
          121,
          122,
          123,
          124,
          125,
          126,
          127,
          128,
          129,
          130,
          131,
          132,
          133,
          134,
          135,
          136,
          137,
          138,
          139,
          140,
          141,
          142,
          143,
          144,
          145,
          146,
          147,
          148,
          149,
          150,
          151,
          152,
          153,
          154,
          155,
          156,
          157,
          158,
          159,
          160,
          161,
          162,
          163,
          164
        ],
        "WindowCenter": [
          1075.0,
          1074.0,
          1074.0,
          1071.0,
          1073.0,
          1073.0,
          1071.0,
          1073.0,
          1071.0,
          1071.0,
          1073.0,
          1071.0,
          1072.0,
          1074.0,
          1072.0,
          1074.0,
          1073.0,
          1070.0,
          1072.0,
          1074.0,
          1072.0,
          1071.0,
          1073.0,
          1071.0,
          1070.0,
          1072.0,
          1069.0,
          1069.0,
          1070.0,
          1070.0,
          1073.0,
          1072.0,
          1069.0,
          1071.0,
          1070.0,
          1070.0,
          1071.0,
          1070.0,
          1070.0,
          1073.0,
          1072.0,
          1071.0,
          1073.0,
          1072.0,
          1070.0,
          1074.0,
          1072.0,
          1071.0,
          1073.0,
          1071.0,
          1071.0,
          1073.0,
          1071.0,
          1070.0,
          1073.0,
          1072.0,
          1071.0,
          1072.0,
          1073.0,
          1070.0,
          1072.0,
          1072.0,
          1071.0,
          1071.0,
          1069.0,
          1069.0,
          1072.0,
          1071.0,
          1070.0,
          1073.0,
          1072.0,
          1073.0,
          1070.0,
          1070.0,
          1072.0,
          1073.0,
          1071.0,
          1070.0,
          1072.0,
          1070.0,
          1069.0,
          1072.0,
          1072.0,
          1069.0,
          1070.0,
          1072.0,
          1071.0,
          1073.0,
          1073.0,
          1071.0,
          1073.0,
          1073.0,
          1072.0,
          1074.0,
          1074.0,
          1071.0,
          1072.0,
          1074.0,
          1072.0,
          1074.0,
          1073.0,
          1072.0,
          1072.0,
          1071.0,
          1071.0,
          1072.0,
          1071.0,
          1073.0,
          1073.0,
          1073.0,
          1073.0,
          1072.0,
          1070.0,
          1072.0,
          1072.0,
          1071.0,
          1074.0,
          1073.0,
          1069.0,
          1070.0,
          1071.0,
          1070.0,
          1072.0,
          1070.0,
          1069.0,
          1073.0,
          1070.0,
          1072.0,
          1075.0,
          1073.0,
          1071.0,
          1072.0,
          1073.0,
          1072.0,
          1074.0,
          1074.0,
          1073.0,
          1071.0,
          1071.0,
          1071.0,
          1073.0,
          1071.0,
          1069.0,
          1070.0,
          1071.0,
          1071.0,
          1070.0,
          1071.0,
          1071.0,
          1073.0,
          1072.0,
          1071.0,
          1072.0,
          1073.0,
          1072.0,
          1073.0,
          1072.0,
          1071.0,
          1071.0,
          1072.0,
          1071.0,
          1074.0,
          1076.0,
          1075.0
        ],
        "WindowWidth": [
          2894.0,
          2894.0,
          2890.0,
          2885.0,
          2892.0,
          2884.0,
          2886.0,
          2891.0,
          2879.0,
          2891.0,
          2892.0,
          2880.0,
          2894.0,
          2897.0,
          2885.0,
          2895.0,
          2888.0,
          2882.0,
          2889.0,
          2893.0,
          2883.0,
          2883.0,
          2894.0,
          2879.0,
          2884.0,
          2882.0,
          2875.0,
          2880.0,
          2884.0,
          2878.0,
          2891.0,
          2885.0,
          2873.0,
          2887.0,
          2880.0,
          2875.0,
          2885.0,
          2877.0,
          2881.0,
          2889.0,
          2877.0,
          2880.0,
          2890.0,
          2882.0,
          2876.0,
          2887.0,
          2883.0,
          2880.0,
          2886.0,
          2872.0,
          2879.0,
          2884.0,
          2874.0,
          2875.0,
          2886.0,
          2880.0,
          2870.0,
          2883.0,
          2883.0,
          2871.0,
          2888.0,
          2885.0,
          2874.0,
          2883.0,
          2870.0,
          2872.0,
          2884.0,
          2876.0,
          2879.0,
          2888.0,
          2880.0,
          2885.0,
          2878.0,
          2872.0,
          2890.0,
          2888.0,
          2875.0,
          2881.0,
          2887.0,
          2875.0,
          2872.0,
          2882.0,
          2880.0,
          2867.0,
          2878.0,
          2881.0,
          2878.0,
          2894.0,
          2890.0,
          2880.0,
          2892.0,
          2886.0,
          2876.0,
          2889.0,
          2882.0,
          2874.0,
          2889.0,
          2888.0,
          2880.0,
          2889.0,
          2881.0,
          2880.0,
          2885.0,
          2875.0,
          2881.0,
          2887.0,
          2878.0,
          2889.0,
          2884.0,
          2879.0,
          2891.0,
          2880.0,
          2874.0,
          2890.0,
          2882.0,
          2879.0,
          2896.0,
          2887.0,
          2869.0,
          2875.0,
          2881.0,
          2880.0,
          2887.0,
          2879.0,
          2877.0,
          2885.0,
          2879.0,
