{
  "aor": 0.0011990243902439024,
  "aqi": 0.006333833048780488,
  "bids_meta": {
    "AcquisitionMatrixPE": 96,
    "AcquisitionNumber": 1,
    "AcquisitionTime": "14:37:57.747500",
    "BandwidthPerPixelPhaseEncode": 52.083,
    "BaseResolution": 96,
    "BodyPartExamined": "HEAD",
    "ConversionSoftware": "dcm2niix",
    "ConversionSoftwareVersion": "v1.0.20180622 GCC6.3.0",
    "DerivedVendorReportedEchoSpacing": 0.000600004,
    "DeviceSerialNumber": "18926",
    "DwellTime": 2.6e-06,
    "EchoTime": 0.025,
    "EffectiveEchoSpacing": 0.000200001,
    "FlipAngle": 50,
    "ImageOrientationPatientDICOM": [
      0.999992,
      0.00067012,
      0.00404905,
      2.11009e-10,
      0.98658,
      -0.16328
    ],
    "ImageType": [
      "ORIGINAL",
      "PRIMARY",
      "M",
      "ND",
      "ECHO",
      "00",
      "MOSAIC"
    ],
    "InPlanePhaseEncodingDirectionDICOM": "ROW",
    "InstitutionName": "NIMH",
    "InstitutionalDepartmentName": "Department",
    "MRAcquisitionType": "2D",
    "MagneticFieldStrength": 6.98,
    "Manufacturer": "Siemens",
    "ManufacturersModelName": "Investigational_Device_7T",
    "Modality": "MR",
    "ParallelReductionFactorInPlane": 3,
    "PartialFourier": 1,
    "PatientPosition": "HFS",
    "PercentPhaseFOV": 100,
    "PhaseEncodingDirection": "i",
    "PhaseEncodingSteps": 94,
    "PhaseResolution": 1,
    "PixelBandwidth": 2003,
    "ProcedureStepDescription": "UserProtocols_gonzalez",
    "ProtocolName": "NIH_EPI_2.0iso_TR2_Run04",
    "PulseSequenceDetails": "%CustomerSeq%_inati_nih_epi",
    "ReceiveCoilName": "32Ch_Head_7T",
    "ReconMatrixPE": 96,
    "RepetitionTime": 2,
    "SAR": 0.081572,
    "ScanningSequence": "EP",
    "SequenceName": "epfid2d1_96",
    "SequenceVariant": "SK",
    "SeriesDescription": "NIH_EPI_2.0iso_TR2_Run04",
    "SeriesNumber": 8,
    "ShimSetting": [
      -121,
      182,
      1360,
      1939,
      -100,
      294,
      615,
      -242
    ],
    "SliceThickness": 2,
    "SliceTiming": [
      1.0025,
      0,
      1.04,
      0.0375,
      1.0775,
      0.0725,
      1.115,
      0.11,
      1.1525,
      0.1475,
      1.19,
      0.185,
      1.225,
      0.2225,
      1.2625,
      0.26,
      1.3,
      0.2975,
      1.3375,
      0.335,
      1.375,
      0.37,
      1.4125,
      0.4075,
      1.45,
      0.445,
      1.4875,
      0.4825,
      1.5225,
      0.52,
      1.56,
      0.5575,
      1.5975,
      0.595,
      1.635,
      0.6325,
      1.6725,
      0.6675,
      1.71,
      0.705,
      1.7475,
      0.7425,
      1.785,
      0.78,
      1.82,
      0.8175,
      1.8575,
      0.855,
      1.895,
      0.8925,
      1.9325,
      0.93,
      1.97,
      0.965
    ],
    "SoftwareVersions": "syngo_MR_B17",
    "SpacingBetweenSlices": 2,
    "StationName": "FMRIFD7T",
    "TaskName": "FullFovNoAttentionTask",
    "TotalReadoutTime": 0.0190001,
    "TxRefAmp": 285,
    "dataset": "ds001555",
    "dcmmeta_affine": [
      [
        -1.9999831914901733,
        4.2201880878778297e-10,
        0.008208253420889378,
        95.76705169677734
      ],
      [
        -0.0013402394251897931,
        1.973159670829773,
        -0.32655632495880127,
        -62.44346618652344
      ],
      [
        0.008098097518086433,
        0.32655906677246094,
        1.9731431007385254,
        -45.61852264404297
      ],
      [
        0.0,
        0.0,
        0.0,
        1.0
      ]
    ],
    "dcmmeta_reorient_transform": [
      [
        0.0,
        -1.0,
        0.0,
        95.0
      ],
      [
        1.0,
        0.0,
        0.0,
        0.0
      ],
      [
        0.0,
        0.0,
        1.0,
        0.0
      ],
      [
        0.0,
        0.0,
        0.0,
        1.0
      ]
    ],
    "dcmmeta_shape": [
      96,
      96,
      54,
      164
    ],
    "dcmmeta_slice_dim": 2,
    "dcmmeta_version": 0.6,
    "global": {
      "const": {
        "AcquisitionMatrix": [
          0,
          96,
          96,
          0
        ],
        "AngioFlag": "N",
        "BitsAllocated": 16,
        "BitsStored": 12,
        "BodyPartExamined": "HEAD",
        "Columns": 768,
        "EchoNumbers": 1,
        "EchoTime": 25.0,
        "EchoTrainLength": 1,
        "FlipAngle": 50.0,
        "HighBit": 11,
        "ImageOrientationPatient": [
          0.99999157803662,
          0.00067011969073,
          0.00404904870684,
          2.110094e-10,
          0.98657984636313,
          -0.1632795356133
        ],
        "ImagePositionPatient": [
          -767.761392775,
          -788.43868109794,
          92.407477460401
        ],
        "ImageType": [
          "ORIGINAL",
          "PRIMARY",
          "M",
          "ND",
          "ECHO_00",
          "MOSAIC"
        ],
        "ImagedNucleus": "1H",
        "ImagingFrequency": 297.20495,
        "InPlanePhaseEncodingDirection": "ROW",
        "LargestImagePixelValue": 4095,
        "MRAcquisitionType": "2D",
        "MagneticFieldStrength": 6.98,
        "Manufacturer": "SIEMENS",
        "ManufacturerModelName": "Investigational_Device_7T",
        "Modality": "MR",
        "NumberOfAverages": 1.0,
        "NumberOfPhaseEncodingSteps": 94,
        "PercentPhaseFieldOfView": 100.0,
        "PercentSampling": 100.0,
        "PerformedProcedureStepStartTime": "135833.816000",
        "PhotometricInterpretation": "MONOCHROME2",
        "PixelBandwidth": 2003.0,
        "PixelRepresentation": 0,
        "PixelSpacing": [
          2.0,
          2.0
        ],
        "PositionReferenceIndicator": "",
        "ProtocolName": "NIH_EPI_2.0iso_TR2_Run04",
        "RepetitionTime": 2000.0,
        "Rows": 768,
        "SAR": 0.08157201477135,
        "SamplesPerPixel": 1,
        "ScanningSequence": "EP",
        "SequenceName": "epfid2d1_96",
        "SequenceVariant": "SK",
        "SeriesDescription": "NIH_EPI_2.0iso_TR2_Run04",
        "SeriesNumber": 8,
        "SliceLocation": -34.417240375035,
        "SliceThickness": 2.0,
        "SmallestImagePixelValue": 0,
        "SoftwareVersions": "syngo MR B17",
        "SpacingBetweenSlices": 1.9999999829181,
        "TransmitCoilName": "32Ch_Head_7T",
        "VariableFlipAngleFlag": "N",
        "WindowCenterWidthExplanation": "Algo1",
        "dBdt": 0.0
      },
      "slices": {}
    },
    "modality": "bold",
    "run_id": 5,
    "session_id": "02",
    "subject_id": "002",
    "task_id": "FullFovNoAttentionTask",
    "time": {
      "samples": {
        "AcquisitionNumber": [
          1,
          2,
          3,
          4,
          5,
          6,
          7,
          8,
          9,
          10,
          11,
          12,
          13,
          14,
          15,
          16,
          17,
          18,
          19,
          20,
          21,
          22,
          23,
          24,
          25,
          26,
          27,
          28,
          29,
          30,
          31,
          32,
          33,
          34,
          35,
          36,
          37,
          38,
          39,
          40,
          41,
          42,
          43,
          44,
          45,
          46,
          47,
          48,
          49,
          50,
          51,
          52,
          53,
          54,
          55,
          56,
          57,
          58,
          59,
          60,
          61,
          62,
          63,
          64,
          65,
          66,
          67,
          68,
          69,
          70,
          71,
          72,
          73,
          74,
          75,
          76,
          77,
          78,
          79,
          80,
          81,
          82,
          83,
          84,
          85,
          86,
          87,
          88,
          89,
          90,
          91,
          92,
          93,
          94,
          95,
          96,
          97,
          98,
          99,
          100,
          101,
          102,
          103,
          104,
          105,
          106,
          107,
          108,
          109,
          110,
          111,
          112,
          113,
          114,
          115,
          116,
          117,
          118,
          119,
          120,
          121,
          122,
          123,
          124,
          125,
          126,
          127,
          128,
          129,
          130,
          131,
          132,
          133,
          134,
          135,
          136,
          137,
          138,
          139,
          140,
          141,
          142,
          143,
          144,
          145,
          146,
          147,
          148,
          149,
          150,
          151,
          152,
          153,
          154,
          155,
          156,
          157,
          158,
          159,
          160,
          161,
          162,
          163,
          164
        ],
        "AcquisitionTime": [
          "143757.747500",
          "143801.765000",
          "143803.772500",
          "143805.780000",
          "143807.787500",
          "143809.797500",
          "143811.805000",
          "143813.812500",
          "143815.820000",
          "143817.827500",
          "143819.837500",
          "143821.845000",
          "143823.852500",
          "143825.860000",
          "143827.867500",
          "143829.877500",
          "143831.885000",
          "143833.892500",
          "143835.900000",
          "143837.910000",
          "143839.917500",
          "143841.925000",
          "143843.932500",
          "143845.940000",
          "143847.950000",
          "143849.957500",
          "143851.965000",
          "143853.972500",
          "143855.980000",
          "143857.990000",
          "143859.997500",
          "143902.005000",
          "143904.012500",
          "143906.022500",
          "143908.030000",
          "143910.037500",
          "143912.045000",
          "143914.052500",
          "143916.062500",
          "143918.070000",
          "143920.077500",
          "143922.085000",
          "143924.092500",
          "143926.102500",
          "143928.110000",
          "143930.117500",
          "143932.125000",
          "143934.132500",
          "143936.142500",
          "143938.150000",
          "143940.157500",
          "143942.165000",
          "143944.175000",
          "143946.182500",
          "143948.190000",
          "143950.197500",
          "143952.205000",
          "143954.215000",
          "143956.222500",
          "143958.230000",
          "144000.237500",
          "144002.245000",
          "144004.255000",
          "144006.262500",
          "144008.270000",
          "144010.277500",
          "144012.287500",
          "144014.295000",
          "144016.302500",
          "144018.310000",
          "144020.317500",
          "144022.327500",
          "144024.335000",
          "144026.342500",
          "144028.350000",
          "144030.357500",
          "144032.367500",
          "144034.375000",
          "144036.382500",
          "144038.390000",
          "144040.400000",
          "144042.407500",
          "144044.415000",
          "144046.422500",
          "144048.430000",
          "144050.440000",
          "144052.447500",
          "144054.455000",
          "144056.462500",
          "144058.470000",
          "144100.480000",
          "144102.487500",
          "144104.495000",
          "144106.502500",
          "144108.510000",
          "144110.520000",
          "144112.527500",
          "144114.535000",
          "144116.542500",
          "144118.552500",
          "144120.560000",
          "144122.567500",
          "144124.575000",
          "144126.582500",
          "144128.592500",
          "144130.600000",
          "144132.607500",
          "144134.615000",
          "144136.622500",
          "144138.632500",
          "144140.640000",
          "144142.647500",
          "144144.655000",
          "144146.665000",
          "144148.672500",
          "144150.680000",
          "144152.687500",
          "144154.695000",
          "144156.705000",
          "144158.712500",
          "144200.720000",
          "144202.727500",
          "144204.735000",
          "144206.745000",
          "144208.752500",
          "144210.760000",
          "144212.767500",
          "144214.777500",
          "144216.785000",
          "144218.792500",
          "144220.800000",
          "144222.807500",
          "144224.817500",
          "144226.825000",
          "144228.832500",
          "144230.840000",
          "144232.847500",
          "144234.857500",
          "144236.865000",
          "144238.872500",
          "144240.880000",
          "144242.887500",
          "144244.897500",
          "144246.905000",
          "144248.912500",
          "144250.920000",
          "144252.930000",
          "144254.937500",
          "144256.945000",
          "144258.952500",
          "144300.960000",
          "144302.970000",
          "144304.977500",
          "144306.985000",
          "144308.992500",
          "144311.000000",
          "144313.010000",
          "144315.017500",
          "144317.025000",
          "144319.032500",
          "144321.042500",
          "144323.050000",
          "144325.057500",
          "144327.065000"
        ],
        "ContentTime": [
          "143858.550000",
          "143858.550000",
          "143858.550000",
          "143858.566000",
          "143858.566000",
          "143858.566000",
          "143858.566000",
          "143858.582000",
          "143858.582000",
          "143858.582000",
          "143858.582000",
          "143858.582000",
          "143858.582000",
          "143858.597000",
          "143858.597000",
          "143858.597000",
          "143858.597000",
          "143858.597000",
          "143858.613000",
          "143858.613000",
          "143858.613000",
          "143858.613000",
          "143858.628000",
          "143858.628000",
          "143858.628000",
          "143858.628000",
          "143858.628000",
          "143858.628000",
          "143938.535000",
          "143938.535000",
          "143938.550000",
          "143938.550000",
          "143938.550000",
          "143938.550000",
          "143938.550000",
          "143938.566000",
          "143938.566000",
          "143938.566000",
          "143938.566000",
          "143938.566000",
          "143938.582000",
          "143938.582000",
          "143938.582000",
          "143938.582000",
          "143938.582000",
          "143938.582000",
          "143938.597000",
          "143938.597000",
          "143958.535000",
          "143958.550000",
          "143958.550000",
          "143958.550000",
          "143958.550000",
          "143958.550000",
          "143958.550000",
          "143958.566000",
          "143958.566000",
          "143958.566000",
          "144038.535000",
          "144038.550000",
          "144038.550000",
          "144038.550000",
          "144038.566000",
          "144038.566000",
          "144038.566000",
          "144038.566000",
          "144038.566000",
          "144038.582000",
          "144038.582000",
          "144038.582000",
          "144038.582000",
          "144038.582000",
          "144038.582000",
          "144038.597000",
          "144038.597000",
          "144038.597000",
          "144038.597000",
          "144038.597000",
          "144118.535000",
          "144118.550000",
          "144118.550000",
          "144118.550000",
          "144118.550000",
          "144118.550000",
          "144118.566000",
          "144118.566000",
          "144118.566000",
          "144118.566000",
          "144118.566000",
          "144118.566000",
          "144118.566000",
          "144118.582000",
          "144118.582000",
          "144118.582000",
          "144118.582000",
          "144118.582000",
          "144118.582000",
          "144118.582000",
          "144158.535000",
          "144158.550000",
          "144158.550000",
          "144158.550000",
          "144158.566000",
          "144158.566000",
          "144158.566000",
          "144158.566000",
          "144158.566000",
          "144158.566000",
          "144158.582000",
          "144158.582000",
          "144158.582000",
          "144158.582000",
          "144158.582000",
          "144158.597000",
          "144158.597000",
          "144158.597000",
          "144158.597000",
          "144158.597000",
          "144238.535000",
          "144238.550000",
          "144238.550000",
          "144238.550000",
          "144238.550000",
          "144238.550000",
          "144238.550000",
          "144238.566000",
          "144238.566000",
          "144238.582000",
          "144238.582000",
          "144238.582000",
          "144238.582000",
          "144238.582000",
          "144238.582000",
          "144238.597000",
          "144238.597000",
          "144238.597000",
          "144238.628000",
          "144238.628000",
          "144318.535000",
          "144318.550000",
          "144318.550000",
          "144318.550000",
          "144318.550000",
          "144318.550000",
          "144318.566000",
          "144318.566000",
          "144318.566000",
          "144318.566000",
          "144318.566000",
          "144318.582000",
          "144318.582000",
          "144318.582000",
          "144318.582000",
          "144318.597000",
          "144318.597000",
          "144318.597000",
          "144318.597000",
          "144318.597000",
          "144328.613000",
          "144328.628000",
          "144328.628000",
          "144328.644000",
          "144328.644000",
          "144328.644000"
        ],
        "InstanceCreationTime": [
          "143858.550000",
          "143858.550000",
          "143858.550000",
          "143858.566000",
          "143858.566000",
          "143858.566000",
          "143858.566000",
          "143858.582000",
          "143858.582000",
          "143858.582000",
          "143858.582000",
          "143858.582000",
          "143858.582000",
          "143858.597000",
          "143858.597000",
          "143858.597000",
          "143858.597000",
          "143858.597000",
          "143858.613000",
          "143858.613000",
          "143858.613000",
          "143858.613000",
          "143858.628000",
          "143858.628000",
          "143858.628000",
          "143858.628000",
          "143858.628000",
          "143858.628000",
          "143938.535000",
          "143938.535000",
          "143938.550000",
          "143938.550000",
          "143938.550000",
          "143938.550000",
          "143938.550000",
          "143938.566000",
          "143938.566000",
          "143938.566000",
          "143938.566000",
          "143938.566000",
          "143938.582000",
          "143938.582000",
          "143938.582000",
          "143938.582000",
          "143938.582000",
          "143938.582000",
          "143938.597000",
          "143938.597000",
          "143958.535000",
          "143958.550000",
          "143958.550000",
          "143958.550000",
          "143958.550000",
          "143958.550000",
          "143958.550000",
          "143958.566000",
          "143958.566000",
          "143958.566000",
          "144038.535000",
          "144038.550000",
          "144038.550000",
          "144038.550000",
          "144038.566000",
          "144038.566000",
          "144038.566000",
          "144038.566000",
          "144038.566000",
          "144038.582000",
          "144038.582000",
          "144038.582000",
          "144038.582000",
          "144038.582000",
          "144038.582000",
          "144038.597000",
          "144038.597000",
          "144038.597000",
          "144038.597000",
          "144038.597000",
          "144118.535000",
          "144118.550000",
          "144118.550000",
          "144118.550000",
          "144118.550000",
          "144118.550000",
          "144118.566000",
          "144118.566000",
          "144118.566000",
          "144118.566000",
          "144118.566000",
          "144118.566000",
          "144118.566000",
          "144118.582000",
          "144118.582000",
          "144118.582000",
          "144118.582000",
          "144118.582000",
          "144118.582000",
          "144118.582000",
          "144158.535000",
          "144158.550000",
          "144158.550000",
          "144158.550000",
          "144158.566000",
          "144158.566000",
          "144158.566000",
          "144158.566000",
          "144158.566000",
          "144158.566000",
          "144158.582000",
          "144158.582000",
          "144158.582000",
          "144158.582000",
          "144158.582000",
          "144158.597000",
          "144158.597000",
          "144158.597000",
          "144158.597000",
          "144158.597000",
          "144238.535000",
          "144238.550000",
          "144238.550000",
          "144238.550000",
          "144238.550000",
          "144238.550000",
          "144238.550000",
          "144238.566000",
          "144238.566000",
          "144238.582000",
          "144238.582000",
          "144238.582000",
          "144238.582000",
          "144238.582000",
          "144238.582000",
          "144238.597000",
          "144238.597000",
          "144238.597000",
          "144238.628000",
          "144238.628000",
          "144318.535000",
          "144318.550000",
          "144318.550000",
          "144318.550000",
          "144318.550000",
          "144318.550000",
          "144318.566000",
          "144318.566000",
          "144318.566000",
          "144318.566000",
          "144318.566000",
          "144318.582000",
          "144318.582000",
          "144318.582000",
          "144318.582000",
          "144318.597000",
          "144318.597000",
          "144318.597000",
          "144318.597000",
          "144318.597000",
          "144328.613000",
          "144328.628000",
          "144328.628000",
          "144328.644000",
          "144328.644000",
          "144328.644000"
        ],
        "InstanceNumber": [
          1,
          2,
          3,
          4,
          5,
          6,
          7,
          8,
          9,
          10,
          11,
          12,
          13,
          14,
          15,
          16,
          17,
          18,
          19,
          20,
          21,
          22,
          23,
          24,
          25,
          26,
          27,
          28,
          29,
          30,
          31,
          32,
          33,
          34,
          35,
          36,
          37,
          38,
          39,
          40,
          41,
          42,
          43,
          44,
          45,
          46,
          47,
          48,
          49,
          50,
          51,
          52,
          53,
          54,
          55,
          56,
          57,
          58,
          59,
          60,
          61,
          62,
          63,
          64,
          65,
          66,
          67,
          68,
          69,
          70,
          71,
          72,
          73,
          74,
          75,
          76,
          77,
          78,
          79,
          80,
          81,
          82,
          83,
          84,
          85,
          86,
          87,
          88,
          89,
          90,
          91,
          92,
          93,
          94,
          95,
          96,
          97,
          98,
          99,
          100,
          101,
          102,
          103,
          104,
          105,
          106,
          107,
          108,
          109,
          110,
          111,
          112,
          113,
          114,
          115,
          116,
          117,
          118,
          119,
          120,
          121,
          122,
          123,
          124,
          125,
          126,
          127,
          128,
          129,
          130,
          131,
          132,
          133,
          134,
          135,
          136,
          137,
          138,
          139,
          140,
          141,
          142,
          143,
          144,
          145,
          146,
          147,
          148,
          149,
          150,
          151,
          152,
          153,
          154,
          155,
          156,
          157,
          158,
          159,
          160,
          161,
          162,
          163,
          164
        ],
        "WindowCenter": [
          1070.0,
          1073.0,
          1071.0,
          1071.0,
          1071.0,
          1070.0,
          1071.0,
          1072.0,
          1071.0,
          1071.0,
          1068.0,
          1070.0,
          1072.0,
          1069.0,
          1071.0,
          1071.0,
          1069.0,
          1071.0,
          1070.0,
          1070.0,
          1073.0,
          1070.0,
          1070.0,
          1069.0,
          1069.0,
          1071.0,
          1070.0,
          1071.0,
          1071.0,
          1070.0,
          1071.0,
          1071.0,
          1071.0,
          1072.0,
          1071.0,
          1071.0,
          1071.0,
          1072.0,
          1071.0,
          1070.0,
          1071.0,
          1071.0,
          1069.0,
          1068.0,
          1070.0,
          1069.0,
          1071.0,
          1072.0,
          1072.0,
          1072.0,
          1071.0,
          1071.0,
          1072.0,
          1072.0,
          1071.0,
          1070.0,
          1071.0,
          1071.0,
          1071.0,
          1069.0,
          1071.0,
          1070.0,
          1070.0,
          1071.0,
          1071.0,
          1072.0,
          1073.0,
          1073.0,
          1072.0,
          1073.0,
          1073.0,
          1070.0,
          1071.0,
          1071.0,
          1072.0,
          1072.0,
          1070.0,
          1071.0,
          1070.0,
          1070.0,
          1070.0,
          1070.0,
          1069.0,
          1071.0,
          1069.0,
          1071.0,
          1072.0,
          1070.0,
          1073.0,
          1071.0,
          1073.0,
          1070.0,
          1074.0,
          1072.0,
          1072.0,
          1072.0,
          1072.0,
          1071.0,
          1072.0,
          1071.0,
          1070.0,
          1072.0,
          1071.0,
          1072.0,
          1072.0,
          1071.0,
          1074.0,
          1072.0,
          1073.0,
          1074.0,
          1073.0,
          1075.0,
          1073.0,
          1072.0,
          1070.0,
          1070.0,
          1073.0,
          1073.0,
          1074.0,
          1073.0,
          1073.0,
          1072.0,
          1073.0,
          1073.0,
          1073.0,
          1074.0,
          1072.0,
          1074.0,
          1074.0,
          1074.0,
          1073.0,
          1071.0,
          1074.0,
          1073.0,
          1071.0,
          1074.0,
          1073.0,
          1073.0,
          1074.0,
          1074.0,
          1074.0,
          1073.0,
          1075.0,
          1075.0,
          1074.0,
          1073.0,
          1071.0,
          1073.0,
          1073.0,
          1073.0,
          1070.0,
          1071.0,
          1071.0,
          1072.0,
          1071.0,
          1070.0,
          1073.0,
          1071.0,
          1071.0,
          1071.0,
          1069.0,
          1073.0,
          1073.0,
          1075.0
        ],
        "WindowWidth": [
          2892.0,
          2898.0,
          2888.0,
          2895.0,
          2890.0,
          2883.0,
          2898.0,
          2895.0,
          2896.0,
          2898.0,
          2884.0,
          2895.0,
          2898.0,
          2888.0,
          2899.0,
          2891.0,
          2887.0,
          2897.0,
          2886.0,
          2891.0,
          2897.0,
          2886.0,
          2890.0,
          2884.0,
          2880.0,
          2894.0,
          2886.0,
          2896.0,
          2889.0,
          2883.0,
          2896.0,
          2885.0,
          2895.0,
          2895.0,
          2888.0,
          2885.0,
          2891.0,
          2894.0,
          2886.0,
          2892.0,
          2883.0,
          2896.0,
          2882.0,
          2882.0,
          2892.0,
          2886.0,
          2896.0,
          2891.0,
          2892.0,
          2889.0,
          2887.0,
          2896.0,
          2890.0,
          2892.0,
          2886.0,
          2895.0,
          2890.0,
          2894.0,
          2890.0,
          2884.0,
          2892.0,
          2884.0,
          2889.0,
          2888.0,
          2895.0,
          2894.0,
          2901.0,
          2893.0,
          2897.0,
          2904.0,
          2895.0,
          2891.0,
          2897.0,
          2888.0,
          2899.0,
          2894.0,
          2896.0,
          2890.0,
          2892.0,
          2888.0,
          2892.0,
          2888.0,
          2885.0,
          2891.0,
          2883.0,
          2896.0,
          2891.0,
          2889.0,
          2898.0,
          2888.0,
          2891.0,
          2886.0,
          2893.0,
          2892.0,
          2898.0,
          2893.0,
          2895.0,
          2885.0,
          2896.0,
          2890.0,
          2888.0,
          2895.0,
          2888.0,
          2896.0,
          2886.0,
          2894.0,
          2897.0,
          2892.0,
          2901.0,
          2897.0,
          2901.0,
          2904.0,
          2891.0,
          2890.0,
          2883.0,
          2886.0,
          2896.0,
          2894.0,
          2891.0,
          2890.0,
          2893.0,
          2891.0,
          2895.0,
          2889.0,
          2894.0,
          2897.0,
          2887.0,
          2900.0,
