{
  "aor": 0.0019042073170731704,
  "aqi": 0.004352795487804878,
  "bids_meta": {
    "AcquisitionMatrixPE": 96,
    "AcquisitionNumber": 1,
    "AcquisitionTime": "10:37:21.022500",
    "BandwidthPerPixelPhaseEncode": 52.083,
    "BaseResolution": 96,
    "BodyPartExamined": "HEAD",
    "ConversionSoftware": "dcm2niix",
    "ConversionSoftwareVersion": "v1.0.20180622 GCC6.3.0",
    "DerivedVendorReportedEchoSpacing": 0.000600004,
    "DeviceSerialNumber": "18926",
    "DwellTime": 2.6e-06,
    "EchoTime": 0.025,
    "EffectiveEchoSpacing": 0.000200001,
    "FlipAngle": 50,
    "ImageOrientationPatientDICOM": [
      0.999992,
      0.00067012,
      0.00404905,
      2.11009e-10,
      0.98658,
      -0.16328
    ],
    "ImageType": [
      "ORIGINAL",
      "PRIMARY",
      "M",
      "ND",
      "ECHO",
      "00",
      "MOSAIC"
    ],
    "InPlanePhaseEncodingDirectionDICOM": "ROW",
    "InstitutionName": "NIMH",
    "InstitutionalDepartmentName": "Department",
    "MRAcquisitionType": "2D",
    "MagneticFieldStrength": 6.98,
    "Manufacturer": "Siemens",
    "ManufacturersModelName": "Investigational_Device_7T",
    "Modality": "MR",
    "ParallelReductionFactorInPlane": 3,
    "PartialFourier": 1,
    "PatientPosition": "HFS",
    "PercentPhaseFOV": 100,
    "PhaseEncodingDirection": "i",
    "PhaseEncodingSteps": 94,
    "PhaseResolution": 1,
    "PixelBandwidth": 2003,
    "ProcedureStepDescription": "MRI_Procedure_Limited",
    "ProtocolName": "NIH_EPI_2.0iso_TR2_Run02",
    "PulseSequenceDetails": "%CustomerSeq%_inati_nih_epi",
    "ReceiveCoilName": "32Ch_Head_7T",
    "ReconMatrixPE": 96,
    "RepetitionTime": 2,
    "SAR": 0.0855205,
    "ScanningSequence": "EP",
    "SequenceName": "epfid2d1_96",
    "SequenceVariant": "SK",
    "SeriesDescription": "NIH_EPI_2.0iso_TR2_Run02",
    "SeriesNumber": 6,
    "ShimSetting": [
      -100,
      166,
      1204,
      2784,
      -173,
      729,
      151,
      -375
    ],
    "SliceThickness": 2,
    "SliceTiming": [
      1.005,
      0,
      1.04,
      0.0375,
      1.0775,
      0.075,
      1.115,
      0.1125,
      1.1525,
      0.1475,
      1.19,
      0.185,
      1.2275,
      0.2225,
      1.265,
      0.26,
      1.3,
      0.2975,
      1.3375,
      0.335,
      1.375,
      0.3725,
      1.4125,
      0.41,
      1.45,
      0.445,
      1.4875,
      0.4825,
      1.525,
      0.52,
      1.5625,
      0.5575,
      1.5975,
      0.595,
      1.635,
      0.6325,
      1.6725,
      0.67,
      1.71,
      0.7075,
      1.7475,
      0.7425,
      1.785,
      0.78,
      1.8225,
      0.8175,
      1.86,
      0.855,
      1.895,
      0.8925,
      1.9325,
      0.93,
      1.97,
      0.9675
    ],
    "SoftwareVersions": "syngo_MR_B17",
    "SpacingBetweenSlices": 2,
    "StationName": "FMRIFD7T",
    "TaskName": "FullFovAttentionTask",
    "TotalReadoutTime": 0.0190001,
    "TxRefAmp": 270,
    "dataset": "ds001555",
    "dcmmeta_affine": [
      [
        -1.9999831914901733,
        4.2201880878778297e-10,
        0.008208253420889378,
        95.76705169677734
      ],
      [
        -0.0013402394251897931,
        1.973159670829773,
        -0.32655632495880127,
        -63.118167877197266
      ],
      [
        0.008098097518086433,
        0.32655906677246094,
        1.9731431007385254,
        -51.01611328125
      ],
      [
        0.0,
        0.0,
        0.0,
        1.0
      ]
    ],
    "dcmmeta_reorient_transform": [
      [
        0.0,
        -1.0,
        0.0,
        95.0
      ],
      [
        1.0,
        0.0,
        0.0,
        0.0
      ],
      [
        0.0,
        0.0,
        1.0,
        0.0
      ],
      [
        0.0,
        0.0,
        0.0,
        1.0
      ]
    ],
    "dcmmeta_shape": [
      96,
      96,
      54,
      164
    ],
    "dcmmeta_slice_dim": 2,
    "dcmmeta_version": 0.6,
    "global": {
      "const": {
        "AcquisitionMatrix": [
          0,
          96,
          96,
          0
        ],
        "Allergies": "No Known Allergies",
        "AngioFlag": "N",
        "BitsAllocated": 16,
        "BitsStored": 12,
        "BodyPartExamined": "HEAD",
        "Columns": 768,
        "EchoNumbers": 1,
        "EchoTime": 25.0,
        "EchoTrainLength": 1,
        "FlipAngle": 50.0,
        "HighBit": 11,
        "ImageOrientationPatient": [
          0.99999157803662,
          0.00067011969073,
          0.00404904870684,
          2.110094e-10,
          0.98657984636313,
          -0.1632795356133
        ],
        "ImagePositionPatient": [
          -767.761392775,
          -787.76398131462,
          87.009884915845
        ],
        "ImageType": [
          "ORIGINAL",
          "PRIMARY",
          "M",
          "ND",
          "ECHO_00",
          "MOSAIC"
        ],
        "ImagedNucleus": "1H",
        "ImagingFrequency": 297.205077,
        "InPlanePhaseEncodingDirection": "ROW",
        "LargestImagePixelValue": 4095,
        "MRAcquisitionType": "2D",
        "MagneticFieldStrength": 6.98,
        "Manufacturer": "SIEMENS",
        "ManufacturerModelName": "Investigational_Device_7T",
        "Modality": "MR",
        "NumberOfAverages": 1.0,
        "NumberOfPhaseEncodingSteps": 94,
        "PercentPhaseFieldOfView": 100.0,
        "PercentSampling": 100.0,
        "PerformedProcedureStepStartTime": "100542.421000",
        "PhotometricInterpretation": "MONOCHROME2",
        "PixelBandwidth": 2003.0,
        "PixelRepresentation": 0,
        "PixelSpacing": [
          2.0,
          2.0
        ],
        "PositionReferenceIndicator": "",
        "ProcedureCodeSequence": [
          {
            "CodeMeaning": "MRI Procedure Limited",
            "CodeValue": "MI01491",
            "CodingSchemeDesignator": "USA Standard",
            "ContextIdentifier": "4000109590"
          }
        ],
        "ProtocolName": "NIH_EPI_2.0iso_TR2_Run02",
        "ReferencedStudySequence": [
          {
            "ReferencedSOPClassUID": "1.2.840.10008.3.1.2.3.1",
            "ReferencedSOPInstanceUID": "1.2.840.113564.9.1.2723958737.61.2.5000075354"
          }
        ],
        "RepetitionTime": 2000.0,
        "RequestedProcedureCodeSequence": [
          {
            "CodeMeaning": "MRI Procedure Limited",
            "CodeValue": "MI01491",
            "CodingSchemeDesignator": "USA Standard",
            "ContextIdentifier": "4000109590"
          }
        ],
        "RequestingService": "MHMI",
        "Rows": 768,
        "SAR": 0.08552052865436,
        "SamplesPerPixel": 1,
        "ScanningSequence": "EP",
        "SequenceName": "epfid2d1_96",
        "SequenceVariant": "SK",
        "SeriesDescription": "NIH_EPI_2.0iso_TR2_Run02",
        "SeriesNumber": 6,
        "SliceLocation": -39.632187810606,
        "SliceThickness": 2.0,
        "SmallestImagePixelValue": 0,
        "SoftwareVersions": "syngo MR B17",
        "SpacingBetweenSlices": 2.0000000154846,
        "TransmitCoilName": "32Ch_Head_7T",
        "VariableFlipAngleFlag": "N",
        "WindowCenterWidthExplanation": "Algo1",
        "dBdt": 0.0
      },
      "slices": {}
    },
    "modality": "bold",
    "run_id": 3,
    "session_id": "01",
    "subject_id": "003",
    "task_id": "FullFovAttentionTask",
    "time": {
      "samples": {
        "AcquisitionNumber": [
          1,
          2,
          3,
          4,
          5,
          6,
          7,
          8,
          9,
          10,
          11,
          12,
          13,
          14,
          15,
          16,
          17,
          18,
          19,
          20,
          21,
          22,
          23,
          24,
          25,
          26,
          27,
          28,
          29,
          30,
          31,
          32,
          33,
          34,
          35,
          36,
          37,
          38,
          39,
          40,
          41,
          42,
          43,
          44,
          45,
          46,
          47,
          48,
          49,
          50,
          51,
          52,
          53,
          54,
          55,
          56,
          57,
          58,
          59,
          60,
          61,
          62,
          63,
          64,
          65,
          66,
          67,
          68,
          69,
          70,
          71,
          72,
          73,
          74,
          75,
          76,
          77,
          78,
          79,
          80,
          81,
          82,
          83,
          84,
          85,
          86,
          87,
          88,
          89,
          90,
          91,
          92,
          93,
          94,
          95,
          96,
          97,
          98,
          99,
          100,
          101,
          102,
          103,
          104,
          105,
          106,
          107,
          108,
          109,
          110,
          111,
          112,
          113,
          114,
          115,
          116,
          117,
          118,
          119,
          120,
          121,
          122,
          123,
          124,
          125,
          126,
          127,
          128,
          129,
          130,
          131,
          132,
          133,
          134,
          135,
          136,
          137,
          138,
          139,
          140,
          141,
          142,
          143,
          144,
          145,
          146,
          147,
          148,
          149,
          150,
          151,
          152,
          153,
          154,
          155,
          156,
          157,
          158,
          159,
          160,
          161,
          162,
          163,
          164
        ],
        "AcquisitionTime": [
          "103721.022500",
          "103725.037500",
          "103727.045000",
          "103729.052500",
          "103731.062500",
          "103733.070000",
          "103735.077500",
          "103737.085000",
          "103739.092500",
          "103741.102500",
          "103743.110000",
          "103745.117500",
          "103747.125000",
          "103749.132500",
          "103751.142500",
          "103753.150000",
          "103755.157500",
          "103757.165000",
          "103759.175000",
          "103801.182500",
          "103803.190000",
          "103805.197500",
          "103807.205000",
          "103809.215000",
          "103811.222500",
          "103813.230000",
          "103815.237500",
          "103817.245000",
          "103819.255000",
          "103821.262500",
          "103823.270000",
          "103825.277500",
          "103827.287500",
          "103829.295000",
          "103831.302500",
          "103833.310000",
          "103835.317500",
          "103837.327500",
          "103839.335000",
          "103841.342500",
          "103843.350000",
          "103845.357500",
          "103847.367500",
          "103849.375000",
          "103851.382500",
          "103853.390000",
          "103855.400000",
          "103857.407500",
          "103859.415000",
          "103901.422500",
          "103903.430000",
          "103905.440000",
          "103907.447500",
          "103909.455000",
          "103911.462500",
          "103913.470000",
          "103915.480000",
          "103917.487500",
          "103919.495000",
          "103921.502500",
          "103923.510000",
          "103925.520000",
          "103927.527500",
          "103929.535000",
          "103931.542500",
          "103933.552500",
          "103935.560000",
          "103937.567500",
          "103939.575000",
          "103941.582500",
          "103943.592500",
          "103945.600000",
          "103947.607500",
          "103949.615000",
          "103951.622500",
          "103953.632500",
          "103955.640000",
          "103957.647500",
          "103959.655000",
          "104001.665000",
          "104003.672500",
          "104005.680000",
          "104007.687500",
          "104009.695000",
          "104011.705000",
          "104013.712500",
          "104015.720000",
          "104017.727500",
          "104019.735000",
          "104021.745000",
          "104023.752500",
          "104025.760000",
          "104027.767500",
          "104029.777500",
          "104031.785000",
          "104033.792500",
          "104035.800000",
          "104037.807500",
          "104039.817500",
          "104041.825000",
          "104043.832500",
          "104045.840000",
          "104047.847500",
          "104049.857500",
          "104051.865000",
          "104053.872500",
          "104055.880000",
          "104057.890000",
          "104059.897500",
          "104101.905000",
          "104103.912500",
          "104105.920000",
          "104107.930000",
          "104109.937500",
          "104111.945000",
          "104113.952500",
          "104115.960000",
          "104117.970000",
          "104119.977500",
          "104121.985000",
          "104123.992500",
          "104126.000000",
          "104128.010000",
          "104130.017500",
          "104132.025000",
          "104134.032500",
          "104136.042500",
          "104138.050000",
          "104140.057500",
          "104142.065000",
          "104144.072500",
          "104146.082500",
          "104148.090000",
          "104150.097500",
          "104152.105000",
          "104154.112500",
          "104156.122500",
          "104158.130000",
          "104200.137500",
          "104202.145000",
          "104204.155000",
          "104206.162500",
          "104208.170000",
          "104210.177500",
          "104212.185000",
          "104214.195000",
          "104216.202500",
          "104218.210000",
          "104220.217500",
          "104222.225000",
          "104224.235000",
          "104226.242500",
          "104228.250000",
          "104230.257500",
          "104232.267500",
          "104234.275000",
          "104236.282500",
          "104238.290000",
          "104240.297500",
          "104242.307500",
          "104244.315000",
          "104246.322500",
          "104248.330000",
          "104250.337500"
        ],
        "ContentTime": [
          "103809.453000",
          "103809.468000",
          "103809.468000",
          "103809.468000",
          "103809.468000",
          "103809.484000",
          "103809.484000",
          "103809.484000",
          "103809.484000",
          "103809.484000",
          "103809.484000",
          "103809.500000",
          "103809.500000",
          "103809.500000",
          "103809.500000",
          "103809.500000",
          "103809.515000",
          "103809.515000",
          "103809.515000",
          "103809.515000",
          "103809.515000",
          "103809.515000",
          "103809.515000",
          "103849.437000",
          "103849.437000",
          "103849.437000",
          "103849.437000",
          "103849.437000",
          "103849.453000",
          "103849.453000",
          "103849.453000",
          "103849.453000",
          "103849.453000",
          "103849.453000",
          "103849.468000",
          "103849.468000",
          "103849.468000",
          "103849.468000",
          "103849.468000",
          "103849.468000",
          "103849.484000",
          "103849.484000",
          "103849.484000",
          "103929.437000",
          "103929.437000",
          "103929.437000",
          "103929.437000",
          "103929.437000",
          "103929.453000",
          "103929.453000",
          "103929.453000",
          "103929.453000",
          "103929.453000",
          "103929.453000",
          "103929.453000",
          "103929.468000",
          "103929.468000",
          "103929.468000",
          "103929.468000",
          "103929.468000",
          "103929.468000",
          "103929.468000",
          "103929.484000",
          "104009.437000",
          "104009.437000",
          "104009.437000",
          "104009.437000",
          "104009.437000",
          "104009.453000",
          "104009.453000",
          "104009.453000",
          "104009.453000",
          "104009.453000",
          "104009.453000",
          "104009.453000",
          "104009.468000",
          "104009.468000",
          "104009.468000",
          "104009.468000",
          "104009.484000",
          "104009.484000",
          "104009.484000",
          "104009.484000",
          "104049.437000",
          "104049.437000",
          "104049.437000",
          "104049.453000",
          "104049.453000",
          "104049.453000",
          "104049.453000",
          "104049.453000",
          "104049.453000",
          "104049.468000",
          "104049.468000",
          "104049.468000",
          "104049.468000",
          "104049.468000",
          "104049.484000",
          "104049.484000",
          "104049.484000",
          "104049.484000",
          "104049.484000",
          "104049.484000",
          "104129.437000",
          "104129.437000",
          "104129.437000",
          "104129.437000",
          "104129.437000",
          "104129.453000",
          "104129.453000",
          "104129.453000",
          "104129.453000",
          "104129.453000",
          "104129.453000",
          "104129.468000",
          "104129.468000",
          "104129.468000",
          "104129.468000",
          "104129.468000",
          "104129.468000",
          "104129.468000",
          "104129.484000",
          "104129.484000",
          "104209.437000",
          "104209.437000",
          "104209.437000",
          "104209.437000",
          "104209.437000",
          "104209.453000",
          "104209.453000",
          "104209.453000",
          "104209.453000",
          "104209.468000",
          "104209.468000",
          "104209.468000",
          "104209.468000",
          "104209.468000",
          "104209.468000",
          "104209.484000",
          "104209.484000",
          "104209.484000",
          "104209.484000",
          "104209.484000",
          "104249.437000",
          "104249.437000",
          "104249.437000",
          "104249.453000",
          "104249.453000",
          "104249.453000",
          "104249.453000",
          "104249.453000",
          "104249.468000",
          "104249.468000",
          "104249.468000",
          "104249.468000",
          "104249.468000",
          "104249.484000",
          "104249.484000",
          "104249.484000",
          "104249.484000",
          "104249.484000",
          "104249.500000",
          "104249.500000",
          "104251.296000"
        ],
        "InstanceCreationTime": [
          "103809.453000",
          "103809.468000",
          "103809.468000",
          "103809.468000",
          "103809.468000",
          "103809.484000",
          "103809.484000",
          "103809.484000",
          "103809.484000",
          "103809.484000",
          "103809.484000",
          "103809.500000",
          "103809.500000",
          "103809.500000",
          "103809.500000",
          "103809.500000",
          "103809.515000",
          "103809.515000",
          "103809.515000",
          "103809.515000",
          "103809.515000",
          "103809.515000",
          "103809.515000",
          "103849.437000",
          "103849.437000",
          "103849.437000",
          "103849.437000",
          "103849.437000",
          "103849.453000",
          "103849.453000",
          "103849.453000",
          "103849.453000",
          "103849.453000",
          "103849.453000",
          "103849.468000",
          "103849.468000",
          "103849.468000",
          "103849.468000",
          "103849.468000",
          "103849.468000",
          "103849.484000",
          "103849.484000",
          "103849.484000",
          "103929.437000",
          "103929.437000",
          "103929.437000",
          "103929.437000",
          "103929.437000",
          "103929.453000",
          "103929.453000",
          "103929.453000",
          "103929.453000",
          "103929.453000",
          "103929.453000",
          "103929.453000",
          "103929.468000",
          "103929.468000",
          "103929.468000",
          "103929.468000",
          "103929.468000",
          "103929.468000",
          "103929.468000",
          "103929.484000",
          "104009.437000",
          "104009.437000",
          "104009.437000",
          "104009.437000",
          "104009.437000",
          "104009.453000",
          "104009.453000",
          "104009.453000",
          "104009.453000",
          "104009.453000",
          "104009.453000",
          "104009.453000",
          "104009.468000",
          "104009.468000",
          "104009.468000",
          "104009.468000",
          "104009.484000",
          "104009.484000",
          "104009.484000",
          "104009.484000",
          "104049.437000",
          "104049.437000",
          "104049.437000",
          "104049.453000",
          "104049.453000",
          "104049.453000",
          "104049.453000",
          "104049.453000",
          "104049.453000",
          "104049.468000",
          "104049.468000",
          "104049.468000",
          "104049.468000",
          "104049.468000",
          "104049.484000",
          "104049.484000",
          "104049.484000",
          "104049.484000",
          "104049.484000",
          "104049.484000",
          "104129.437000",
          "104129.437000",
          "104129.437000",
          "104129.437000",
          "104129.437000",
          "104129.453000",
          "104129.453000",
          "104129.453000",
          "104129.453000",
          "104129.453000",
          "104129.453000",
          "104129.468000",
          "104129.468000",
          "104129.468000",
          "104129.468000",
          "104129.468000",
          "104129.468000",
          "104129.468000",
          "104129.484000",
          "104129.484000",
          "104209.437000",
          "104209.437000",
          "104209.437000",
          "104209.437000",
          "104209.437000",
          "104209.453000",
          "104209.453000",
          "104209.453000",
          "104209.453000",
          "104209.468000",
          "104209.468000",
          "104209.468000",
          "104209.468000",
          "104209.468000",
          "104209.468000",
          "104209.484000",
          "104209.484000",
          "104209.484000",
          "104209.484000",
          "104209.484000",
          "104249.437000",
          "104249.437000",
          "104249.437000",
          "104249.453000",
          "104249.453000",
          "104249.453000",
          "104249.453000",
          "104249.453000",
          "104249.468000",
          "104249.468000",
          "104249.468000",
          "104249.468000",
          "104249.468000",
          "104249.484000",
          "104249.484000",
          "104249.484000",
          "104249.484000",
          "104249.484000",
          "104249.500000",
          "104249.500000",
          "104251.296000"
        ],
        "InstanceNumber": [
          1,
          2,
          3,
          4,
          5,
          6,
          7,
          8,
          9,
          10,
          11,
          12,
          13,
          14,
          15,
          16,
          17,
          18,
          19,
          20,
          21,
          22,
          23,
          24,
          25,
          26,
          27,
          28,
          29,
          30,
          31,
          32,
          33,
          34,
          35,
          36,
          37,
          38,
          39,
          40,
          41,
          42,
          43,
          44,
          45,
          46,
          47,
          48,
          49,
          50,
          51,
          52,
          53,
          54,
          55,
          56,
          57,
          58,
          59,
          60,
          61,
          62,
          63,
          64,
          65,
          66,
          67,
          68,
          69,
          70,
          71,
          72,
          73,
          74,
          75,
          76,
          77,
          78,
          79,
          80,
          81,
          82,
          83,
          84,
          85,
          86,
          87,
          88,
          89,
          90,
          91,
          92,
          93,
          94,
          95,
          96,
          97,
          98,
          99,
          100,
          101,
          102,
          103,
          104,
          105,
          106,
          107,
          108,
          109,
          110,
          111,
          112,
          113,
          114,
          115,
          116,
          117,
          118,
          119,
          120,
          121,
          122,
          123,
          124,
          125,
          126,
          127,
          128,
          129,
          130,
          131,
          132,
          133,
          134,
          135,
          136,
          137,
          138,
          139,
          140,
          141,
          142,
          143,
          144,
          145,
          146,
          147,
          148,
          149,
          150,
          151,
          152,
          153,
          154,
          155,
          156,
          157,
          158,
          159,
          160,
          161,
          162,
          163,
          164
        ],
        "WindowCenter": [
          943.0,
          941.0,
          940.0,
          940.0,
          940.0,
          940.0,
          940.0,
          941.0,
          941.0,
          939.0,
          940.0,
          940.0,
          940.0,
          940.0,
          939.0,
          940.0,
          940.0,
          942.0,
          940.0,
          940.0,
          942.0,
          941.0,
          940.0,
          940.0,
          940.0,
          942.0,
          942.0,
          942.0,
          941.0,
          940.0,
          940.0,
          940.0,
          941.0,
          939.0,
          939.0,
          939.0,
          940.0,
          941.0,
          941.0,
          941.0,
          940.0,
          940.0,
          941.0,
          942.0,
          941.0,
          940.0,
          940.0,
          941.0,
          941.0,
          940.0,
          939.0,
          939.0,
          940.0,
          940.0,
          939.0,
          939.0,
          941.0,
          943.0,
          942.0,
          941.0,
          940.0,
          940.0,
          940.0,
          939.0,
          939.0,
          940.0,
          939.0,
          939.0,
          939.0,
          939.0,
          940.0,
          941.0,
          940.0,
          940.0,
          939.0,
          940.0,
          941.0,
          941.0,
          941.0,
          940.0,
          940.0,
          941.0,
          941.0,
          941.0,
          940.0,
          941.0,
          942.0,
          941.0,
          940.0,
          939.0,
          940.0,
          940.0,
          940.0,
          940.0,
          941.0,
          942.0,
          942.0,
          941.0,
          941.0,
          942.0,
          942.0,
          941.0,
          941.0,
          941.0,
          941.0,
          941.0,
          941.0,
          941.0,
          940.0,
          940.0,
          941.0,
          940.0,
          940.0,
          940.0,
          940.0,
          943.0,
          942.0,
          940.0,
          939.0,
          941.0,
          943.0,
          942.0,
          941.0,
          941.0,
          940.0,
          941.0,
          940.0,
          940.0,
          940.0,
          941.0,
          940.0,
          940.0,
          941.0,
          942.0,
          942.0,
          942.0,
          943.0,
          944.0,
          943.0,
          942.0,
          942.0,
          942.0,
          942.0,
          942.0,
          940.0,
          940.0,
          940.0,
          940.0,
          941.0,
          941.0,
          941.0,
          940.0,
          942.0,
          941.0,
          941.0,
          940.0,
          941.0,
          941.0,
          941.0,
          940.0,
          941.0,
          941.0,
          941.0,
          940.0
        ],
        "WindowWidth": [
          2498.0,
          2488.0,
          2484.0,
          2484.0,
          2482.0,
          2481.0,
          2487.0,
          2490.0,
          2487.0,
          2479.0,
          2479.0,
          2486.0,
          2487.0,
          2481.0,
          2480.0,
          2484.0,
          2487.0,
          2483.0,
          2479.0,
          2484.0,
          2493.0,
          2492.0,
          2484.0,
          2482.0,
          2488.0,
          2494.0,
          2494.0,
          2494.0,
          2483.0,
          2479.0,
          2482.0,
          2487.0,
          2484.0,
          2481.0,
          2484.0,
          2484.0,
          2486.0,
          2490.0,
          2493.0,
          2489.0,
          2484.0,
          2485.0,
          2494.0,
          2494.0,
          2489.0,
          2489.0,
          2490.0,
          2490.0,
          2488.0,
          2484.0,
          2478.0,
          2479.0,
          2485.0,
          2486.0,
          2482.0,
          2477.0,
          2497.0,
          2500.0,
          2490.0,
          2482.0,
          2483.0,
          2481.0,
          2476.0,
          2470.0,
          2475.0,
          2476.0,
          2477.0,
          2478.0,
          2476.0,
          2479.0,
          2483.0,
          2487.0,
          2484.0,
          2481.0,
          2483.0,
          2487.0,
          2495.0,
          2494.0,
          2486.0,
          2480.0,
          2484.0,
          2490.0,
          2490.0,
          2485.0,
          2482.0,
          2487.0,
          2496.0,
          2491.0,
          2478.0,
          2477.0,
          2484.0,
