{
  "aor": 0.0014162804878048779,
  "aqi": 0.004924864268292683,
  "bids_meta": {
    "AcquisitionMatrixPE": 96,
    "AcquisitionNumber": 1,
    "AcquisitionTime": "10:31:13.930000",
    "BandwidthPerPixelPhaseEncode": 52.083,
    "BaseResolution": 96,
    "BodyPartExamined": "HEAD",
    "ConversionSoftware": "dcm2niix",
    "ConversionSoftwareVersion": "v1.0.20180622 GCC6.3.0",
    "DerivedVendorReportedEchoSpacing": 0.000600004,
    "DeviceSerialNumber": "18926",
    "DwellTime": 2.6e-06,
    "EchoTime": 0.025,
    "EffectiveEchoSpacing": 0.000200001,
    "FlipAngle": 50,
    "ImageOrientationPatientDICOM": [
      0.999992,
      0.00067012,
      0.00404905,
      2.11009e-10,
      0.98658,
      -0.16328
    ],
    "ImageType": [
      "ORIGINAL",
      "PRIMARY",
      "M",
      "ND",
      "ECHO",
      "00",
      "MOSAIC"
    ],
    "InPlanePhaseEncodingDirectionDICOM": "ROW",
    "InstitutionName": "NIMH",
    "InstitutionalDepartmentName": "Department",
    "MRAcquisitionType": "2D",
    "MagneticFieldStrength": 6.98,
    "Manufacturer": "Siemens",
    "ManufacturersModelName": "Investigational_Device_7T",
    "Modality": "MR",
    "ParallelReductionFactorInPlane": 3,
    "PartialFourier": 1,
    "PatientPosition": "HFS",
    "PercentPhaseFOV": 100,
    "PhaseEncodingDirection": "i",
    "PhaseEncodingSteps": 94,
    "PhaseResolution": 1,
    "PixelBandwidth": 2003,
    "ProcedureStepDescription": "MRI_Procedure_Limited",
    "ProtocolName": "NIH_EPI_2.0iso_TR2_Run01",
    "PulseSequenceDetails": "%CustomerSeq%_inati_nih_epi",
    "ReceiveCoilName": "32Ch_Head_7T",
    "ReconMatrixPE": 96,
    "RepetitionTime": 2,
    "SAR": 0.0855205,
    "ScanningSequence": "EP",
    "SequenceName": "epfid2d1_96",
    "SequenceVariant": "SK",
    "SeriesDescription": "NIH_EPI_2.0iso_TR2_Run01",
    "SeriesNumber": 5,
    "ShimSetting": [
      -100,
      166,
      1204,
      2784,
      -173,
      729,
      151,
      -375
    ],
    "SliceThickness": 2,
    "SliceTiming": [
      1.0025,
      0,
      1.04,
      0.035,
      1.0775,
      0.0725,
      1.115,
      0.11,
      1.1525,
      0.1475,
      1.19,
      0.185,
      1.225,
      0.2225,
      1.2625,
      0.26,
      1.3,
      0.2975,
      1.3375,
      0.3325,
      1.375,
      0.37,
      1.4125,
      0.4075,
      1.45,
      0.445,
      1.485,
      0.4825,
      1.5225,
      0.52,
      1.56,
      0.5575,
      1.5975,
      0.595,
      1.635,
      0.63,
      1.6725,
      0.6675,
      1.71,
      0.705,
      1.7475,
      0.7425,
      1.7825,
      0.78,
      1.82,
      0.8175,
      1.8575,
      0.855,
      1.895,
      0.8925,
      1.9325,
      0.9275,
      1.97,
      0.965
    ],
    "SoftwareVersions": "syngo_MR_B17",
    "SpacingBetweenSlices": 2,
    "StationName": "FMRIFD7T",
    "TaskName": "FullFovAttentionTask",
    "TotalReadoutTime": 0.0190001,
    "TxRefAmp": 270,
    "dataset": "ds001555",
    "dcmmeta_affine": [
      [
        -1.9999831914901733,
        4.2201880878778297e-10,
        0.008208253420889378,
        95.76705169677734
      ],
      [
        -0.0013402394251897931,
        1.973159670829773,
        -0.32655632495880127,
        -63.118167877197266
      ],
      [
        0.008098097518086433,
        0.32655906677246094,
        1.9731431007385254,
        -51.01611328125
      ],
      [
        0.0,
        0.0,
        0.0,
        1.0
      ]
    ],
    "dcmmeta_reorient_transform": [
      [
        0.0,
        -1.0,
        0.0,
        95.0
      ],
      [
        1.0,
        0.0,
        0.0,
        0.0
      ],
      [
        0.0,
        0.0,
        1.0,
        0.0
      ],
      [
        0.0,
        0.0,
        0.0,
        1.0
      ]
    ],
    "dcmmeta_shape": [
      96,
      96,
      54,
      164
    ],
    "dcmmeta_slice_dim": 2,
    "dcmmeta_version": 0.6,
    "global": {
      "const": {
        "AcquisitionMatrix": [
          0,
          96,
          96,
          0
        ],
        "Allergies": "No Known Allergies",
        "AngioFlag": "N",
        "BitsAllocated": 16,
        "BitsStored": 12,
        "BodyPartExamined": "HEAD",
        "Columns": 768,
        "EchoNumbers": 1,
        "EchoTime": 25.0,
        "EchoTrainLength": 1,
        "FlipAngle": 50.0,
        "HighBit": 11,
        "ImageOrientationPatient": [
          0.99999157803662,
          0.00067011969073,
          0.00404904870684,
          2.110094e-10,
          0.98657984636313,
          -0.1632795356133
        ],
        "ImagePositionPatient": [
          -767.761392775,
          -787.76398131462,
          87.009884915845
        ],
        "ImageType": [
          "ORIGINAL",
          "PRIMARY",
          "M",
          "ND",
          "ECHO_00",
          "MOSAIC"
        ],
        "ImagedNucleus": "1H",
        "ImagingFrequency": 297.205068,
        "InPlanePhaseEncodingDirection": "ROW",
        "LargestImagePixelValue": 4095,
        "MRAcquisitionType": "2D",
        "MagneticFieldStrength": 6.98,
        "Manufacturer": "SIEMENS",
        "ManufacturerModelName": "Investigational_Device_7T",
        "Modality": "MR",
        "NumberOfAverages": 1.0,
        "NumberOfPhaseEncodingSteps": 94,
        "PercentPhaseFieldOfView": 100.0,
        "PercentSampling": 100.0,
        "PerformedProcedureStepStartTime": "100542.421000",
        "PhotometricInterpretation": "MONOCHROME2",
        "PixelBandwidth": 2003.0,
        "PixelRepresentation": 0,
        "PixelSpacing": [
          2.0,
          2.0
        ],
        "PositionReferenceIndicator": "",
        "ProcedureCodeSequence": [
          {
            "CodeMeaning": "MRI Procedure Limited",
            "CodeValue": "MI01491",
            "CodingSchemeDesignator": "USA Standard",
            "ContextIdentifier": "4000109590"
          }
        ],
        "ProtocolName": "NIH_EPI_2.0iso_TR2_Run01",
        "ReferencedStudySequence": [
          {
            "ReferencedSOPClassUID": "1.2.840.10008.3.1.2.3.1",
            "ReferencedSOPInstanceUID": "1.2.840.113564.9.1.2723958737.61.2.5000075354"
          }
        ],
        "RepetitionTime": 2000.0,
        "RequestedProcedureCodeSequence": [
          {
            "CodeMeaning": "MRI Procedure Limited",
            "CodeValue": "MI01491",
            "CodingSchemeDesignator": "USA Standard",
            "ContextIdentifier": "4000109590"
          }
        ],
        "RequestingService": "MHMI",
        "Rows": 768,
        "SAR": 0.08552052865436,
        "SamplesPerPixel": 1,
        "ScanningSequence": "EP",
        "SequenceName": "epfid2d1_96",
        "SequenceVariant": "SK",
        "SeriesDescription": "NIH_EPI_2.0iso_TR2_Run01",
        "SeriesNumber": 5,
        "SliceLocation": -39.632187810606,
        "SliceThickness": 2.0,
        "SmallestImagePixelValue": 0,
        "SoftwareVersions": "syngo MR B17",
        "SpacingBetweenSlices": 2.0000000154846,
        "TransmitCoilName": "32Ch_Head_7T",
        "VariableFlipAngleFlag": "N",
        "WindowCenterWidthExplanation": "Algo1",
        "dBdt": 0.0
      },
      "slices": {}
    },
    "modality": "bold",
    "run_id": 2,
    "session_id": "01",
    "subject_id": "003",
    "task_id": "FullFovAttentionTask",
    "time": {
      "samples": {
        "AcquisitionNumber": [
          1,
          2,
          3,
          4,
          5,
          6,
          7,
          8,
          9,
          10,
          11,
          12,
          13,
          14,
          15,
          16,
          17,
          18,
          19,
          20,
          21,
          22,
          23,
          24,
          25,
          26,
          27,
          28,
          29,
          30,
          31,
          32,
          33,
          34,
          35,
          36,
          37,
          38,
          39,
          40,
          41,
          42,
          43,
          44,
          45,
          46,
          47,
          48,
          49,
          50,
          51,
          52,
          53,
          54,
          55,
          56,
          57,
          58,
          59,
          60,
          61,
          62,
          63,
          64,
          65,
          66,
          67,
          68,
          69,
          70,
          71,
          72,
          73,
          74,
          75,
          76,
          77,
          78,
          79,
          80,
          81,
          82,
          83,
          84,
          85,
          86,
          87,
          88,
          89,
          90,
          91,
          92,
          93,
          94,
          95,
          96,
          97,
          98,
          99,
          100,
          101,
          102,
          103,
          104,
          105,
          106,
          107,
          108,
          109,
          110,
          111,
          112,
          113,
          114,
          115,
          116,
          117,
          118,
          119,
          120,
          121,
          122,
          123,
          124,
          125,
          126,
          127,
          128,
          129,
          130,
          131,
          132,
          133,
          134,
          135,
          136,
          137,
          138,
          139,
          140,
          141,
          142,
          143,
          144,
          145,
          146,
          147,
          148,
          149,
          150,
          151,
          152,
          153,
          154,
          155,
          156,
          157,
          158,
          159,
          160,
          161,
          162,
          163,
          164
        ],
        "AcquisitionTime": [
          "103113.930000",
          "103117.947500",
          "103119.955000",
          "103121.962500",
          "103123.970000",
          "103125.977500",
          "103127.987500",
          "103129.995000",
          "103132.002500",
          "103134.010000",
          "103136.017500",
          "103138.027500",
          "103140.035000",
          "103142.042500",
          "103144.050000",
          "103146.060000",
          "103148.067500",
          "103150.075000",
          "103152.082500",
          "103154.090000",
          "103156.100000",
          "103158.107500",
          "103200.115000",
          "103202.122500",
          "103204.130000",
          "103206.140000",
          "103208.147500",
          "103210.155000",
          "103212.162500",
          "103214.172500",
          "103216.180000",
          "103218.187500",
          "103220.195000",
          "103222.202500",
          "103224.212500",
          "103226.220000",
          "103228.227500",
          "103230.235000",
          "103232.242500",
          "103234.252500",
          "103236.260000",
          "103238.267500",
          "103240.275000",
          "103242.285000",
          "103244.292500",
          "103246.300000",
          "103248.307500",
          "103250.315000",
          "103252.325000",
          "103254.332500",
          "103256.340000",
          "103258.347500",
          "103300.355000",
          "103302.365000",
          "103304.372500",
          "103306.380000",
          "103308.387500",
          "103310.397500",
          "103312.405000",
          "103314.412500",
          "103316.420000",
          "103318.427500",
          "103320.437500",
          "103322.445000",
          "103324.452500",
          "103326.460000",
          "103328.467500",
          "103330.477500",
          "103332.485000",
          "103334.492500",
          "103336.500000",
          "103338.507500",
          "103340.517500",
          "103342.525000",
          "103344.532500",
          "103346.540000",
          "103348.550000",
          "103350.557500",
          "103352.565000",
          "103354.572500",
          "103356.580000",
          "103358.590000",
          "103400.597500",
          "103402.605000",
          "103404.612500",
          "103406.620000",
          "103408.630000",
          "103410.637500",
          "103412.645000",
          "103414.652500",
          "103416.662500",
          "103418.670000",
          "103420.677500",
          "103422.685000",
          "103424.692500",
          "103426.702500",
          "103428.710000",
          "103430.717500",
          "103432.725000",
          "103434.732500",
          "103436.742500",
          "103438.750000",
          "103440.757500",
          "103442.765000",
          "103444.775000",
          "103446.782500",
          "103448.790000",
          "103450.797500",
          "103452.805000",
          "103454.815000",
          "103456.822500",
          "103458.830000",
          "103500.837500",
          "103502.845000",
          "103504.855000",
          "103506.862500",
          "103508.870000",
          "103510.877500",
          "103512.885000",
          "103514.895000",
          "103516.902500",
          "103518.910000",
          "103520.917500",
          "103522.927500",
          "103524.935000",
          "103526.942500",
          "103528.950000",
          "103530.957500",
          "103532.967500",
          "103534.975000",
          "103536.982500",
          "103538.990000",
          "103540.997500",
          "103543.007500",
          "103545.015000",
          "103547.022500",
          "103549.030000",
          "103551.040000",
          "103553.047500",
          "103555.055000",
          "103557.062500",
          "103559.070000",
          "103601.080000",
          "103603.087500",
          "103605.095000",
          "103607.102500",
          "103609.110000",
          "103611.120000",
          "103613.127500",
          "103615.135000",
          "103617.142500",
          "103619.152500",
          "103621.160000",
          "103623.167500",
          "103625.175000",
          "103627.182500",
          "103629.192500",
          "103631.200000",
          "103633.207500",
          "103635.215000",
          "103637.222500",
          "103639.232500",
          "103641.240000",
          "103643.247500"
        ],
        "ContentTime": [
          "103206.578000",
          "103206.593000",
          "103206.593000",
          "103206.593000",
          "103206.593000",
          "103206.609000",
          "103206.609000",
          "103206.609000",
          "103206.609000",
          "103206.625000",
          "103206.625000",
          "103206.625000",
          "103206.625000",
          "103206.625000",
          "103206.625000",
          "103206.640000",
          "103206.640000",
          "103206.640000",
          "103206.640000",
          "103206.656000",
          "103206.656000",
          "103206.656000",
          "103206.656000",
          "103206.656000",
          "103206.656000",
          "103246.578000",
          "103246.578000",
          "103246.578000",
          "103246.578000",
          "103246.593000",
          "103246.593000",
          "103246.593000",
          "103246.593000",
          "103246.609000",
          "103246.609000",
          "103246.609000",
          "103246.609000",
          "103246.609000",
          "103246.609000",
          "103246.609000",
          "103246.625000",
          "103246.625000",
          "103246.625000",
          "103246.625000",
          "103246.625000",
          "103326.578000",
          "103326.578000",
          "103326.578000",
          "103326.593000",
          "103326.593000",
          "103326.593000",
          "103326.593000",
          "103326.593000",
          "103326.609000",
          "103326.609000",
          "103326.609000",
          "103326.609000",
          "103326.625000",
          "103326.625000",
          "103326.625000",
          "103326.625000",
          "103326.625000",
          "103326.625000",
          "103326.625000",
          "103326.640000",
          "103406.578000",
          "103406.578000",
          "103406.578000",
          "103406.578000",
          "103406.578000",
          "103406.593000",
          "103406.593000",
          "103406.593000",
          "103406.593000",
          "103406.593000",
          "103406.593000",
          "103406.609000",
          "103406.609000",
          "103406.609000",
          "103406.609000",
          "103406.625000",
          "103406.625000",
          "103406.625000",
          "103406.625000",
          "103406.625000",
          "103446.578000",
          "103446.578000",
          "103446.578000",
          "103446.578000",
          "103446.578000",
          "103446.593000",
          "103446.593000",
          "103446.593000",
          "103446.609000",
          "103446.609000",
          "103446.609000",
          "103446.609000",
          "103446.609000",
          "103446.609000",
          "103446.625000",
          "103446.625000",
          "103446.625000",
          "103446.625000",
          "103446.625000",
          "103446.625000",
          "103526.578000",
          "103526.578000",
          "103526.593000",
          "103526.593000",
          "103526.593000",
          "103526.593000",
          "103526.593000",
          "103526.593000",
          "103526.609000",
          "103526.609000",
          "103526.609000",
          "103526.609000",
          "103526.609000",
          "103526.609000",
          "103526.609000",
          "103526.625000",
          "103526.625000",
          "103526.625000",
          "103526.625000",
          "103526.625000",
          "103606.578000",
          "103606.578000",
          "103606.578000",
          "103606.578000",
          "103606.578000",
          "103606.593000",
          "103606.593000",
          "103606.593000",
          "103606.593000",
          "103606.593000",
          "103606.593000",
          "103606.593000",
          "103606.609000",
          "103606.609000",
          "103606.609000",
          "103606.625000",
          "103606.625000",
          "103606.625000",
          "103606.625000",
          "103606.625000",
          "103643.828000",
          "103643.828000",
          "103643.828000",
          "103643.828000",
          "103643.828000",
          "103643.828000",
          "103643.843000",
          "103643.843000",
          "103643.843000",
          "103643.843000",
          "103643.843000",
          "103643.843000",
          "103643.859000",
          "103643.859000",
          "103643.859000",
          "103643.859000",
          "103643.859000",
          "103643.859000",
          "103643.859000"
        ],
        "InstanceCreationTime": [
          "103206.578000",
          "103206.593000",
          "103206.593000",
          "103206.593000",
          "103206.593000",
          "103206.609000",
          "103206.609000",
          "103206.609000",
          "103206.609000",
          "103206.625000",
          "103206.625000",
          "103206.625000",
          "103206.625000",
          "103206.625000",
          "103206.625000",
          "103206.640000",
          "103206.640000",
          "103206.640000",
          "103206.640000",
          "103206.656000",
          "103206.656000",
          "103206.656000",
          "103206.656000",
          "103206.656000",
          "103206.656000",
          "103246.578000",
          "103246.578000",
          "103246.578000",
          "103246.578000",
          "103246.593000",
          "103246.593000",
          "103246.593000",
          "103246.593000",
          "103246.609000",
          "103246.609000",
          "103246.609000",
          "103246.609000",
          "103246.609000",
          "103246.609000",
          "103246.609000",
          "103246.625000",
          "103246.625000",
          "103246.625000",
          "103246.625000",
          "103246.625000",
          "103326.578000",
          "103326.578000",
          "103326.578000",
          "103326.593000",
          "103326.593000",
          "103326.593000",
          "103326.593000",
          "103326.593000",
          "103326.609000",
          "103326.609000",
          "103326.609000",
          "103326.609000",
          "103326.625000",
          "103326.625000",
          "103326.625000",
          "103326.625000",
          "103326.625000",
          "103326.625000",
          "103326.625000",
          "103326.640000",
          "103406.578000",
          "103406.578000",
          "103406.578000",
          "103406.578000",
          "103406.578000",
          "103406.593000",
          "103406.593000",
          "103406.593000",
          "103406.593000",
          "103406.593000",
          "103406.593000",
          "103406.609000",
          "103406.609000",
          "103406.609000",
          "103406.609000",
          "103406.625000",
          "103406.625000",
          "103406.625000",
          "103406.625000",
          "103406.625000",
          "103446.578000",
          "103446.578000",
          "103446.578000",
          "103446.578000",
          "103446.578000",
          "103446.593000",
          "103446.593000",
          "103446.593000",
          "103446.609000",
          "103446.609000",
          "103446.609000",
          "103446.609000",
          "103446.609000",
          "103446.609000",
          "103446.625000",
          "103446.625000",
          "103446.625000",
          "103446.625000",
          "103446.625000",
          "103446.625000",
          "103526.578000",
          "103526.578000",
          "103526.593000",
          "103526.593000",
          "103526.593000",
          "103526.593000",
          "103526.593000",
          "103526.593000",
          "103526.609000",
          "103526.609000",
          "103526.609000",
          "103526.609000",
          "103526.609000",
          "103526.609000",
          "103526.609000",
          "103526.625000",
          "103526.625000",
          "103526.625000",
          "103526.625000",
          "103526.625000",
          "103606.578000",
          "103606.578000",
          "103606.578000",
          "103606.578000",
          "103606.578000",
          "103606.593000",
          "103606.593000",
          "103606.593000",
          "103606.593000",
          "103606.593000",
          "103606.593000",
          "103606.593000",
          "103606.609000",
          "103606.609000",
          "103606.609000",
          "103606.625000",
          "103606.625000",
          "103606.625000",
          "103606.625000",
          "103606.625000",
          "103643.828000",
          "103643.828000",
          "103643.828000",
          "103643.828000",
          "103643.828000",
          "103643.828000",
          "103643.843000",
          "103643.843000",
          "103643.843000",
          "103643.843000",
          "103643.843000",
          "103643.843000",
          "103643.859000",
          "103643.859000",
          "103643.859000",
          "103643.859000",
          "103643.859000",
          "103643.859000",
          "103643.859000"
        ],
        "InstanceNumber": [
          1,
          2,
          3,
          4,
          5,
          6,
          7,
          8,
          9,
          10,
          11,
          12,
          13,
          14,
          15,
          16,
          17,
          18,
          19,
          20,
          21,
          22,
          23,
          24,
          25,
          26,
          27,
          28,
          29,
          30,
          31,
          32,
          33,
          34,
          35,
          36,
          37,
          38,
          39,
          40,
          41,
          42,
          43,
          44,
          45,
          46,
          47,
          48,
          49,
          50,
          51,
          52,
          53,
          54,
          55,
          56,
          57,
          58,
          59,
          60,
          61,
          62,
          63,
          64,
          65,
          66,
          67,
          68,
          69,
          70,
          71,
          72,
          73,
          74,
          75,
          76,
          77,
          78,
          79,
          80,
          81,
          82,
          83,
          84,
          85,
          86,
          87,
          88,
          89,
          90,
          91,
          92,
          93,
          94,
          95,
          96,
          97,
          98,
          99,
          100,
          101,
          102,
          103,
          104,
          105,
          106,
          107,
          108,
          109,
          110,
          111,
          112,
          113,
          114,
          115,
          116,
          117,
          118,
          119,
          120,
          121,
          122,
          123,
          124,
          125,
          126,
          127,
          128,
          129,
          130,
          131,
          132,
          133,
          134,
          135,
          136,
          137,
          138,
          139,
          140,
          141,
          142,
          143,
          144,
          145,
          146,
          147,
          148,
          149,
          150,
          151,
          152,
          153,
          154,
          155,
          156,
          157,
          158,
          159,
          160,
          161,
          162,
          163,
          164
        ],
        "WindowCenter": [
          943.0,
          942.0,
          942.0,
          941.0,
          941.0,
          942.0,
          943.0,
          943.0,
          943.0,
          944.0,
          944.0,
          943.0,
          943.0,
          943.0,
          943.0,
          943.0,
          943.0,
          942.0,
          943.0,
          942.0,
          943.0,
          942.0,
          942.0,
          941.0,
          941.0,
          940.0,
          941.0,
          942.0,
          942.0,
          941.0,
          942.0,
          942.0,
          941.0,
          941.0,
          941.0,
          941.0,
          943.0,
          942.0,
          943.0,
          942.0,
          942.0,
          942.0,
          942.0,
          942.0,
          942.0,
          941.0,
          941.0,
          941.0,
          941.0,
          941.0,
          941.0,
          942.0,
          941.0,
          940.0,
          940.0,
          940.0,
          941.0,
          942.0,
          942.0,
          942.0,
          941.0,
          941.0,
          941.0,
          941.0,
          942.0,
          942.0,
          942.0,
          940.0,
          940.0,
          941.0,
          940.0,
          941.0,
          941.0,
          941.0,
          941.0,
          941.0,
          942.0,
          941.0,
          941.0,
          940.0,
          941.0,
          941.0,
          941.0,
          940.0,
          940.0,
          940.0,
          941.0,
          940.0,
          940.0,
          940.0,
          941.0,
          941.0,
          942.0,
          942.0,
          941.0,
          941.0,
          943.0,
          943.0,
          942.0,
          942.0,
          941.0,
          942.0,
          943.0,
          942.0,
          942.0,
          941.0,
          941.0,
          940.0,
          940.0,
          939.0,
          939.0,
          940.0,
          940.0,
          940.0,
          940.0,
          940.0,
          941.0,
          940.0,
          941.0,
          941.0,
          942.0,
          942.0,
          940.0,
          941.0,
          941.0,
          942.0,
          943.0,
          942.0,
          940.0,
          941.0,
          941.0,
          942.0,
          941.0,
          941.0,
          940.0,
          941.0,
          941.0,
          943.0,
          943.0,
          942.0,
          939.0,
          940.0,
          941.0,
          940.0,
          939.0,
          940.0,
          941.0,
          943.0,
          941.0,
          941.0,
          941.0,
          941.0,
          940.0,
          938.0,
          939.0,
          940.0,
          939.0,
          939.0,
          938.0,
          939.0,
          939.0,
          940.0,
          939.0,
          939.0
        ],
        "WindowWidth": [
          2493.0,
          2494.0,
          2489.0,
          2485.0,
          2487.0,
          2492.0,
          2498.0,
          2502.0,
          2503.0,
          2501.0,
          2501.0,
          2498.0,
          2497.0,
          2497.0,
          2499.0,
          2502.0,
          2498.0,
          2494.0,
          2490.0,
          2494.0,
          2493.0,
          2490.0,
          2489.0,
          2487.0,
          2484.0,
          2482.0,
          2485.0,
          2490.0,
          2492.0,
          2491.0,
          2494.0,
          2493.0,
          2487.0,
          2486.0,
          2487.0,
          2492.0,
          2496.0,
          2496.0,
          2494.0,
          2492.0,
          2494.0,
          2495.0,
          2499.0,
          2502.0,
          2494.0,
          2489.0,
          2489.0,
          2489.0,
          2485.0,
          2487.0,
          2493.0,
          2493.0,
          2486.0,
          2483.0,
          2482.0,
          2486.0,
          2492.0,
          2494.0,
          2493.0,
          2490.0,
          2487.0,
          2486.0,
          2483.0,
          2484.0,
          2493.0,
          2498.0,
          2494.0,
          2485.0,
          2483.0,
          2487.0,
          2492.0,
          2495.0,
          2491.0,
          2490.0,
          2491.0,
          2494.0,
          2495.0,
          2492.0,
          2487.0,
          2488.0,
          2492.0,
          2488.0,
          2482.0,
          2482.0,
          2485.0,
          2486.0,
          2482.0,
          2481.0,
          2482.0,
          2485.0,
          2489.0,
