{
  "aor": 0.0034246951219512193,
  "aqi": 0.008176292439024391,
  "bids_meta": {
    "AcquisitionMatrixPE": 96,
    "AcquisitionNumber": 1,
    "AcquisitionTime": "11:10:52.395000",
    "BandwidthPerPixelPhaseEncode": 52.083,
    "BaseResolution": 96,
    "BodyPartExamined": "HEAD",
    "ConversionSoftware": "dcm2niix",
    "ConversionSoftwareVersion": "v1.0.20180622 GCC6.3.0",
    "DerivedVendorReportedEchoSpacing": 0.000600004,
    "DeviceSerialNumber": "18926",
    "DwellTime": 2.6e-06,
    "EchoTime": 0.025,
    "EffectiveEchoSpacing": 0.000200001,
    "FlipAngle": 50,
    "ImageOrientationPatientDICOM": [
      0.999992,
      0.00067012,
      0.00404905,
      2.11009e-10,
      0.98658,
      -0.16328
    ],
    "ImageType": [
      "ORIGINAL",
      "PRIMARY",
      "M",
      "ND",
      "ECHO",
      "00",
      "MOSAIC"
    ],
    "InPlanePhaseEncodingDirectionDICOM": "ROW",
    "InstitutionName": "NIMH",
    "InstitutionalDepartmentName": "Department",
    "MRAcquisitionType": "2D",
    "MagneticFieldStrength": 6.98,
    "Manufacturer": "Siemens",
    "ManufacturersModelName": "Investigational_Device_7T",
    "Modality": "MR",
    "ParallelReductionFactorInPlane": 3,
    "PartialFourier": 1,
    "PatientPosition": "HFS",
    "PercentPhaseFOV": 100,
    "PhaseEncodingDirection": "i",
    "PhaseEncodingSteps": 94,
    "PhaseResolution": 1,
    "PixelBandwidth": 2003,
    "ProcedureStepDescription": "MRI_Procedure_Limited",
    "ProtocolName": "NIH_EPI_2.0iso_TR2_Run07",
    "PulseSequenceDetails": "%CustomerSeq%_inati_nih_epi",
    "ReceiveCoilName": "32Ch_Head_7T",
    "ReconMatrixPE": 96,
    "RepetitionTime": 2,
    "SAR": 0.0855205,
    "ScanningSequence": "EP",
    "SequenceName": "epfid2d1_96",
    "SequenceVariant": "SK",
    "SeriesDescription": "NIH_EPI_2.0iso_TR2_Run07",
    "SeriesNumber": 11,
    "ShimSetting": [
      -100,
      166,
      1204,
      2784,
      -173,
      729,
      151,
      -375
    ],
    "SliceThickness": 2,
    "SliceTiming": [
      1.0025,
      0,
      1.04,
      0.0375,
      1.0775,
      0.075,
      1.115,
      0.11,
      1.1525,
      0.1475,
      1.19,
      0.185,
      1.2275,
      0.2225,
      1.2625,
      0.26,
      1.3,
      0.2975,
      1.3375,
      0.335,
      1.375,
      0.3725,
      1.4125,
      0.4075,
      1.45,
      0.445,
      1.4875,
      0.4825,
      1.525,
      0.52,
      1.56,
      0.5575,
      1.5975,
      0.595,
      1.635,
      0.6325,
      1.6725,
      0.67,
      1.71,
      0.705,
      1.7475,
      0.7425,
      1.785,
      0.78,
      1.8225,
      0.8175,
      1.8575,
      0.855,
      1.895,
      0.8925,
      1.9325,
      0.93,
      1.97,
      0.9675
    ],
    "SoftwareVersions": "syngo_MR_B17",
    "SpacingBetweenSlices": 2,
    "StationName": "FMRIFD7T",
    "TaskName": "FullFovAttentionTask",
    "TotalReadoutTime": 0.0190001,
    "TxRefAmp": 270,
    "dataset": "ds001555",
    "dcmmeta_affine": [
      [
        -1.9999831914901733,
        4.2201880878778297e-10,
        0.008208253420889378,
        95.76705169677734
      ],
      [
        -0.0013402394251897931,
        1.973159670829773,
        -0.32655632495880127,
        -63.118167877197266
      ],
      [
        0.008098097518086433,
        0.32655906677246094,
        1.9731431007385254,
        -51.01611328125
      ],
      [
        0.0,
        0.0,
        0.0,
        1.0
      ]
    ],
    "dcmmeta_reorient_transform": [
      [
        0.0,
        -1.0,
        0.0,
        95.0
      ],
      [
        1.0,
        0.0,
        0.0,
        0.0
      ],
      [
        0.0,
        0.0,
        1.0,
        0.0
      ],
      [
        0.0,
        0.0,
        0.0,
        1.0
      ]
    ],
    "dcmmeta_shape": [
      96,
      96,
      54,
      164
    ],
    "dcmmeta_slice_dim": 2,
    "dcmmeta_version": 0.6,
    "global": {
      "const": {
        "AcquisitionMatrix": [
          0,
          96,
          96,
          0
        ],
        "Allergies": "No Known Allergies",
        "AngioFlag": "N",
        "BitsAllocated": 16,
        "BitsStored": 12,
        "BodyPartExamined": "HEAD",
        "Columns": 768,
        "EchoNumbers": 1,
        "EchoTime": 25.0,
        "EchoTrainLength": 1,
        "FlipAngle": 50.0,
        "HighBit": 11,
        "ImageOrientationPatient": [
          0.99999157803662,
          0.00067011969073,
          0.00404904870684,
          2.110094e-10,
          0.98657984636313,
          -0.1632795356133
        ],
        "ImagePositionPatient": [
          -767.761392775,
          -787.76398131462,
          87.009884915845
        ],
        "ImageType": [
          "ORIGINAL",
          "PRIMARY",
          "M",
          "ND",
          "ECHO_00",
          "MOSAIC"
        ],
        "ImagedNucleus": "1H",
        "ImagingFrequency": 297.205162,
        "InPlanePhaseEncodingDirection": "ROW",
        "LargestImagePixelValue": 4095,
        "MRAcquisitionType": "2D",
        "MagneticFieldStrength": 6.98,
        "Manufacturer": "SIEMENS",
        "ManufacturerModelName": "Investigational_Device_7T",
        "Modality": "MR",
        "NumberOfAverages": 1.0,
        "NumberOfPhaseEncodingSteps": 94,
        "PercentPhaseFieldOfView": 100.0,
        "PercentSampling": 100.0,
        "PerformedProcedureStepStartTime": "100542.421000",
        "PhotometricInterpretation": "MONOCHROME2",
        "PixelBandwidth": 2003.0,
        "PixelRepresentation": 0,
        "PixelSpacing": [
          2.0,
          2.0
        ],
        "PositionReferenceIndicator": "",
        "ProcedureCodeSequence": [
          {
            "CodeMeaning": "MRI Procedure Limited",
            "CodeValue": "MI01491",
            "CodingSchemeDesignator": "USA Standard",
            "ContextIdentifier": "4000109590"
          }
        ],
        "ProtocolName": "NIH_EPI_2.0iso_TR2_Run07",
        "ReferencedStudySequence": [
          {
            "ReferencedSOPClassUID": "1.2.840.10008.3.1.2.3.1",
            "ReferencedSOPInstanceUID": "1.2.840.113564.9.1.2723958737.61.2.5000075354"
          }
        ],
        "RepetitionTime": 2000.0,
        "RequestedProcedureCodeSequence": [
          {
            "CodeMeaning": "MRI Procedure Limited",
            "CodeValue": "MI01491",
            "CodingSchemeDesignator": "USA Standard",
            "ContextIdentifier": "4000109590"
          }
        ],
        "RequestingService": "MHMI",
        "Rows": 768,
        "SAR": 0.08552052865436,
        "SamplesPerPixel": 1,
        "ScanningSequence": "EP",
        "SequenceName": "epfid2d1_96",
        "SequenceVariant": "SK",
        "SeriesDescription": "NIH_EPI_2.0iso_TR2_Run07",
        "SeriesNumber": 11,
        "SliceLocation": -39.632187810606,
        "SliceThickness": 2.0,
        "SmallestImagePixelValue": 0,
        "SoftwareVersions": "syngo MR B17",
        "SpacingBetweenSlices": 2.0000000154846,
        "TransmitCoilName": "32Ch_Head_7T",
        "VariableFlipAngleFlag": "N",
        "WindowCenterWidthExplanation": "Algo1",
        "dBdt": 0.0
      },
      "slices": {}
    },
    "modality": "bold",
    "run_id": 8,
    "session_id": "01",
    "subject_id": "003",
    "task_id": "FullFovAttentionTask",
    "time": {
      "samples": {
        "AcquisitionNumber": [
          1,
          2,
          3,
          4,
          5,
          6,
          7,
          8,
          9,
          10,
          11,
          12,
          13,
          14,
          15,
          16,
          17,
          18,
          19,
          20,
          21,
          22,
          23,
          24,
          25,
          26,
          27,
          28,
          29,
          30,
          31,
          32,
          33,
          34,
          35,
          36,
          37,
          38,
          39,
          40,
          41,
          42,
          43,
          44,
          45,
          46,
          47,
          48,
          49,
          50,
          51,
          52,
          53,
          54,
          55,
          56,
          57,
          58,
          59,
          60,
          61,
          62,
          63,
          64,
          65,
          66,
          67,
          68,
          69,
          70,
          71,
          72,
          73,
          74,
          75,
          76,
          77,
          78,
          79,
          80,
          81,
          82,
          83,
          84,
          85,
          86,
          87,
          88,
          89,
          90,
          91,
          92,
          93,
          94,
          95,
          96,
          97,
          98,
          99,
          100,
          101,
          102,
          103,
          104,
          105,
          106,
          107,
          108,
          109,
          110,
          111,
          112,
          113,
          114,
          115,
          116,
          117,
          118,
          119,
          120,
          121,
          122,
          123,
          124,
          125,
          126,
          127,
          128,
          129,
          130,
          131,
          132,
          133,
          134,
          135,
          136,
          137,
          138,
          139,
          140,
          141,
          142,
          143,
          144,
          145,
          146,
          147,
          148,
          149,
          150,
          151,
          152,
          153,
          154,
          155,
          156,
          157,
          158,
          159,
          160,
          161,
          162,
          163,
          164
        ],
        "AcquisitionTime": [
          "111052.395000",
          "111056.412500",
          "111058.420000",
          "111100.427500",
          "111102.435000",
          "111104.445000",
          "111106.452500",
          "111108.460000",
          "111110.467500",
          "111112.477500",
          "111114.485000",
          "111116.492500",
          "111118.500000",
          "111120.507500",
          "111122.517500",
          "111124.525000",
          "111126.532500",
          "111128.540000",
          "111130.547500",
          "111132.557500",
          "111134.565000",
          "111136.572500",
          "111138.580000",
          "111140.590000",
          "111142.597500",
          "111144.605000",
          "111146.612500",
          "111148.620000",
          "111150.630000",
          "111152.637500",
          "111154.645000",
          "111156.652500",
          "111158.660000",
          "111200.670000",
          "111202.677500",
          "111204.685000",
          "111206.692500",
          "111208.700000",
          "111210.710000",
          "111212.717500",
          "111214.725000",
          "111216.732500",
          "111218.742500",
          "111220.750000",
          "111222.757500",
          "111224.765000",
          "111226.772500",
          "111228.782500",
          "111230.790000",
          "111232.797500",
          "111234.805000",
          "111236.812500",
          "111238.822500",
          "111240.830000",
          "111242.837500",
          "111244.845000",
          "111246.855000",
          "111248.862500",
          "111250.870000",
          "111252.877500",
          "111254.885000",
          "111256.895000",
          "111258.902500",
          "111300.910000",
          "111302.917500",
          "111304.925000",
          "111306.935000",
          "111308.942500",
          "111310.950000",
          "111312.957500",
          "111314.967500",
          "111316.975000",
          "111318.982500",
          "111320.990000",
          "111322.997500",
          "111325.007500",
          "111327.015000",
          "111329.022500",
          "111331.030000",
          "111333.037500",
          "111335.047500",
          "111337.055000",
          "111339.062500",
          "111341.070000",
          "111343.077500",
          "111345.087500",
          "111347.095000",
          "111349.102500",
          "111351.110000",
          "111353.120000",
          "111355.127500",
          "111357.135000",
          "111359.142500",
          "111401.150000",
          "111403.160000",
          "111405.167500",
          "111407.175000",
          "111409.182500",
          "111411.190000",
          "111413.200000",
          "111415.207500",
          "111417.215000",
          "111419.222500",
          "111421.232500",
          "111423.240000",
          "111425.247500",
          "111427.255000",
          "111429.262500",
          "111431.272500",
          "111433.280000",
          "111435.287500",
          "111437.295000",
          "111439.302500",
          "111441.312500",
          "111443.320000",
          "111445.327500",
          "111447.335000",
          "111449.345000",
          "111451.352500",
          "111453.360000",
          "111455.367500",
          "111457.375000",
          "111459.385000",
          "111501.392500",
          "111503.400000",
          "111505.407500",
          "111507.415000",
          "111509.425000",
          "111511.432500",
          "111513.440000",
          "111515.447500",
          "111517.455000",
          "111519.465000",
          "111521.472500",
          "111523.480000",
          "111525.487500",
          "111527.497500",
          "111529.505000",
          "111531.512500",
          "111533.520000",
          "111535.527500",
          "111537.537500",
          "111539.545000",
          "111541.552500",
          "111543.560000",
          "111545.567500",
          "111547.577500",
          "111549.585000",
          "111551.592500",
          "111553.600000",
          "111555.610000",
          "111557.617500",
          "111559.625000",
          "111601.632500",
          "111603.640000",
          "111605.650000",
          "111607.657500",
          "111609.665000",
          "111611.672500",
          "111613.680000",
          "111615.690000",
          "111617.697500",
          "111619.705000",
          "111621.712500"
        ],
        "ContentTime": [
          "111146.578000",
          "111146.593000",
          "111146.593000",
          "111146.593000",
          "111146.593000",
          "111146.593000",
          "111146.593000",
          "111146.609000",
          "111146.609000",
          "111146.609000",
          "111146.609000",
          "111146.609000",
          "111146.625000",
          "111146.625000",
          "111146.625000",
          "111146.625000",
          "111146.625000",
          "111146.625000",
          "111146.625000",
          "111146.640000",
          "111146.640000",
          "111146.640000",
          "111146.640000",
          "111146.640000",
          "111146.640000",
          "111146.656000",
          "111226.578000",
          "111226.578000",
          "111226.578000",
          "111226.578000",
          "111226.593000",
          "111226.593000",
          "111226.593000",
          "111226.593000",
          "111226.593000",
          "111226.609000",
          "111226.609000",
          "111226.609000",
          "111226.609000",
          "111226.609000",
          "111226.625000",
          "111226.625000",
          "111226.625000",
          "111226.625000",
          "111226.625000",
          "111226.625000",
          "111306.578000",
          "111306.578000",
          "111306.578000",
          "111306.578000",
          "111306.578000",
          "111306.593000",
          "111306.593000",
          "111306.593000",
          "111306.593000",
          "111306.593000",
          "111306.609000",
          "111306.625000",
          "111306.625000",
          "111306.625000",
          "111306.625000",
          "111306.640000",
          "111306.640000",
          "111306.640000",
          "111306.640000",
          "111306.640000",
          "111346.578000",
          "111346.578000",
          "111346.578000",
          "111346.578000",
          "111346.578000",
          "111346.593000",
          "111346.593000",
          "111346.593000",
          "111346.593000",
          "111346.609000",
          "111346.609000",
          "111346.609000",
          "111346.609000",
          "111346.609000",
          "111346.609000",
          "111346.609000",
          "111346.625000",
          "111346.625000",
          "111346.625000",
          "111346.625000",
          "111426.578000",
          "111426.578000",
          "111426.578000",
          "111426.593000",
          "111426.593000",
          "111426.593000",
          "111426.593000",
          "111426.593000",
          "111426.593000",
          "111426.609000",
          "111426.609000",
          "111426.609000",
          "111426.609000",
          "111426.609000",
          "111426.609000",
          "111426.625000",
          "111426.625000",
          "111426.625000",
          "111426.625000",
          "111426.625000",
          "111506.578000",
          "111506.578000",
          "111506.578000",
          "111506.578000",
          "111506.593000",
          "111506.593000",
          "111506.593000",
          "111506.593000",
          "111506.593000",
          "111506.593000",
          "111506.609000",
          "111506.609000",
          "111506.609000",
          "111506.625000",
          "111506.625000",
          "111506.625000",
          "111506.625000",
          "111506.625000",
          "111506.625000",
          "111506.640000",
          "111546.578000",
          "111546.578000",
          "111546.578000",
          "111546.578000",
          "111546.578000",
          "111546.593000",
          "111546.593000",
          "111546.593000",
          "111546.593000",
          "111546.593000",
          "111546.593000",
          "111546.593000",
          "111546.609000",
          "111546.609000",
          "111546.609000",
          "111546.609000",
          "111546.609000",
          "111546.609000",
          "111546.625000",
          "111546.625000",
          "111621.750000",
          "111621.765000",
          "111621.765000",
          "111621.765000",
          "111621.781000",
          "111621.781000",
          "111621.781000",
          "111621.781000",
          "111621.796000",
          "111621.796000",
          "111621.796000",
          "111621.796000",
          "111621.796000",
          "111621.796000",
          "111621.812000",
          "111621.812000",
          "111621.812000",
          "111621.812000"
        ],
        "InstanceCreationTime": [
          "111146.578000",
          "111146.593000",
          "111146.593000",
          "111146.593000",
          "111146.593000",
          "111146.593000",
          "111146.593000",
          "111146.609000",
          "111146.609000",
          "111146.609000",
          "111146.609000",
          "111146.609000",
          "111146.625000",
          "111146.625000",
          "111146.625000",
          "111146.625000",
          "111146.625000",
          "111146.625000",
          "111146.625000",
          "111146.640000",
          "111146.640000",
          "111146.640000",
          "111146.640000",
          "111146.640000",
          "111146.640000",
          "111146.656000",
          "111226.578000",
          "111226.578000",
          "111226.578000",
          "111226.578000",
          "111226.593000",
          "111226.593000",
          "111226.593000",
          "111226.593000",
          "111226.593000",
          "111226.609000",
          "111226.609000",
          "111226.609000",
          "111226.609000",
          "111226.609000",
          "111226.625000",
          "111226.625000",
          "111226.625000",
          "111226.625000",
          "111226.625000",
          "111226.625000",
          "111306.578000",
          "111306.578000",
          "111306.578000",
          "111306.578000",
          "111306.578000",
          "111306.593000",
          "111306.593000",
          "111306.593000",
          "111306.593000",
          "111306.593000",
          "111306.609000",
          "111306.625000",
          "111306.625000",
          "111306.625000",
          "111306.625000",
          "111306.640000",
          "111306.640000",
          "111306.640000",
          "111306.640000",
          "111306.640000",
          "111346.578000",
          "111346.578000",
          "111346.578000",
          "111346.578000",
          "111346.578000",
          "111346.593000",
          "111346.593000",
          "111346.593000",
          "111346.593000",
          "111346.609000",
          "111346.609000",
          "111346.609000",
          "111346.609000",
          "111346.609000",
          "111346.609000",
          "111346.609000",
          "111346.625000",
          "111346.625000",
          "111346.625000",
          "111346.625000",
          "111426.578000",
          "111426.578000",
          "111426.578000",
          "111426.593000",
          "111426.593000",
          "111426.593000",
          "111426.593000",
          "111426.593000",
          "111426.593000",
          "111426.609000",
          "111426.609000",
          "111426.609000",
          "111426.609000",
          "111426.609000",
          "111426.609000",
          "111426.625000",
          "111426.625000",
          "111426.625000",
          "111426.625000",
          "111426.625000",
          "111506.578000",
          "111506.578000",
          "111506.578000",
          "111506.578000",
          "111506.593000",
          "111506.593000",
          "111506.593000",
          "111506.593000",
          "111506.593000",
          "111506.593000",
          "111506.609000",
          "111506.609000",
          "111506.609000",
          "111506.625000",
          "111506.625000",
          "111506.625000",
          "111506.625000",
          "111506.625000",
          "111506.625000",
          "111506.640000",
          "111546.578000",
          "111546.578000",
          "111546.578000",
          "111546.578000",
          "111546.578000",
          "111546.593000",
          "111546.593000",
          "111546.593000",
          "111546.593000",
          "111546.593000",
          "111546.593000",
          "111546.593000",
          "111546.609000",
          "111546.609000",
          "111546.609000",
          "111546.609000",
          "111546.609000",
          "111546.609000",
          "111546.625000",
          "111546.625000",
          "111621.750000",
          "111621.765000",
          "111621.765000",
          "111621.765000",
          "111621.781000",
          "111621.781000",
          "111621.781000",
          "111621.781000",
          "111621.796000",
          "111621.796000",
          "111621.796000",
          "111621.796000",
          "111621.796000",
          "111621.796000",
          "111621.812000",
          "111621.812000",
          "111621.812000",
          "111621.812000"
        ],
        "InstanceNumber": [
          1,
          2,
          3,
          4,
          5,
          6,
          7,
          8,
          9,
          10,
          11,
          12,
          13,
          14,
          15,
          16,
          17,
          18,
          19,
          20,
          21,
          22,
          23,
          24,
          25,
          26,
          27,
          28,
          29,
          30,
          31,
          32,
          33,
          34,
          35,
          36,
          37,
          38,
          39,
          40,
          41,
          42,
          43,
          44,
          45,
          46,
          47,
          48,
          49,
          50,
          51,
          52,
          53,
          54,
          55,
          56,
          57,
          58,
          59,
          60,
          61,
          62,
          63,
          64,
          65,
          66,
          67,
          68,
          69,
          70,
          71,
          72,
          73,
          74,
          75,
          76,
          77,
          78,
          79,
          80,
          81,
          82,
          83,
          84,
          85,
          86,
          87,
          88,
          89,
          90,
          91,
          92,
          93,
          94,
          95,
          96,
          97,
          98,
          99,
          100,
          101,
          102,
          103,
          104,
          105,
          106,
          107,
          108,
          109,
          110,
          111,
          112,
          113,
          114,
          115,
          116,
          117,
          118,
          119,
          120,
          121,
          122,
          123,
          124,
          125,
          126,
          127,
          128,
          129,
          130,
          131,
          132,
          133,
          134,
          135,
          136,
          137,
          138,
          139,
          140,
          141,
          142,
          143,
          144,
          145,
          146,
          147,
          148,
          149,
          150,
          151,
          152,
          153,
          154,
          155,
          156,
          157,
          158,
          159,
          160,
          161,
          162,
          163,
          164
        ],
        "WindowCenter": [
          937.0,
          937.0,
          937.0,
          937.0,
          936.0,
          937.0,
          938.0,
          937.0,
          937.0,
          936.0,
          937.0,
          936.0,
          937.0,
          938.0,
          938.0,
          938.0,
          938.0,
          940.0,
          940.0,
          941.0,
          940.0,
          939.0,
          937.0,
          937.0,
          937.0,
          937.0,
          937.0,
          937.0,
          936.0,
          937.0,
          938.0,
          939.0,
          938.0,
          938.0,
          938.0,
          937.0,
          937.0,
          938.0,
          937.0,
          937.0,
          937.0,
          936.0,
          938.0,
          938.0,
          937.0,
          937.0,
          937.0,
          938.0,
          938.0,
          936.0,
          935.0,
          936.0,
          937.0,
          938.0,
          937.0,
          936.0,
          937.0,
          936.0,
          937.0,
          937.0,
          937.0,
          936.0,
          936.0,
          937.0,
          937.0,
          937.0,
          936.0,
          937.0,
          937.0,
          936.0,
          936.0,
          936.0,
          936.0,
          937.0,
          937.0,
          937.0,
          936.0,
          937.0,
          936.0,
          935.0,
          935.0,
          935.0,
          936.0,
          936.0,
          935.0,
          935.0,
          935.0,
          935.0,
          936.0,
          935.0,
          934.0,
          936.0,
          936.0,
          937.0,
          937.0,
          938.0,
          937.0,
          936.0,
          936.0,
          937.0,
          937.0,
          936.0,
          935.0,
          935.0,
          935.0,
          935.0,
          935.0,
          935.0,
          937.0,
          937.0,
          936.0,
          936.0,
          936.0,
          936.0,
          938.0,
          936.0,
          936.0,
          936.0,
          937.0,
          937.0,
          937.0,
          936.0,
          936.0,
          936.0,
          936.0,
          936.0,
          936.0,
          936.0,
          936.0,
          936.0,
          936.0,
          936.0,
          936.0,
          936.0,
          936.0,
          937.0,
          938.0,
          939.0,
          938.0,
          937.0,
          936.0,
          936.0,
          937.0,
          937.0,
          936.0,
          936.0,
          936.0,
          937.0,
          937.0,
          937.0,
          938.0,
          938.0,
          937.0,
          936.0,
          935.0,
          936.0,
          937.0,
          936.0,
          935.0,
          934.0,
          934.0,
          936.0,
          937.0,
          937.0
        ],
        "WindowWidth": [
          2464.0,
          2462.0,
          2461.0,
          2460.0,
          2460.0,
          2464.0,
          2466.0,
          2467.0,
          2465.0,
          2464.0,
          2463.0,
          2466.0,
          2471.0,
          2475.0,
          2473.0,
          2471.0,
          2477.0,
          2488.0,
          2490.0,
          2486.0,
          2479.0,
          2471.0,
          2467.0,
          2468.0,
          2471.0,
          2472.0,
          2470.0,
          2464.0,
          2463.0,
          2470.0,
          2476.0,
          2481.0,
          2481.0,
          2480.0,
          2475.0,
          2468.0,
          2470.0,
          2471.0,
          2469.0,
          2465.0,
          2467.0,
          2472.0,
          2478.0,
          2478.0,
          2467.0,
          2464.0,
          2474.0,
          2482.0,
          2472.0,
          2462.0,
          2458.0,
          2468.0,
          2477.0,
          2473.0,
          2468.0,
          2464.0,
          2465.0,
          2471.0,
          2471.0,
          2468.0,
          2464.0,
          2461.0,
          2467.0,
          2471.0,
          2468.0,
          2467.0,
          2471.0,
          2478.0,
          2476.0,
          2472.0,
          2469.0,
          2469.0,
          2473.0,
          2474.0,
          2477.0,
          2476.0,
          2469.0,
          2473.0,
          2469.0,
          2462.0,
          2458.0,
          2460.0,
          2464.0,
          2459.0,
          2455.0,
          2459.0,
          2463.0,
          2463.0,
          2462.0,
          2460.0,
          2458.0,
