{
  "aor": 0.0011158536585365853,
  "aqi": 0.007691461707317073,
  "bids_meta": {
    "AcquisitionMatrixPE": 96,
    "AcquisitionNumber": 1,
    "AcquisitionTime": "11:17:5.812500",
    "BandwidthPerPixelPhaseEncode": 52.083,
    "BaseResolution": 96,
    "BodyPartExamined": "HEAD",
    "ConversionSoftware": "dcm2niix",
    "ConversionSoftwareVersion": "v1.0.20180622 GCC6.3.0",
    "DerivedVendorReportedEchoSpacing": 0.000600004,
    "DeviceSerialNumber": "18926",
    "DwellTime": 2.6e-06,
    "EchoTime": 0.025,
    "EffectiveEchoSpacing": 0.000200001,
    "FlipAngle": 50,
    "ImageOrientationPatientDICOM": [
      0.999992,
      0.00067012,
      0.00404905,
      2.11009e-10,
      0.98658,
      -0.16328
    ],
    "ImageType": [
      "ORIGINAL",
      "PRIMARY",
      "M",
      "ND",
      "ECHO",
      "00",
      "MOSAIC"
    ],
    "InPlanePhaseEncodingDirectionDICOM": "ROW",
    "InstitutionName": "NIMH",
    "InstitutionalDepartmentName": "Department",
    "MRAcquisitionType": "2D",
    "MagneticFieldStrength": 6.98,
    "Manufacturer": "Siemens",
    "ManufacturersModelName": "Investigational_Device_7T",
    "Modality": "MR",
    "ParallelReductionFactorInPlane": 3,
    "PartialFourier": 1,
    "PatientPosition": "HFS",
    "PercentPhaseFOV": 100,
    "PhaseEncodingDirection": "i",
    "PhaseEncodingSteps": 94,
    "PhaseResolution": 1,
    "PixelBandwidth": 2003,
    "ProcedureStepDescription": "MRI_Procedure_Limited",
    "ProtocolName": "NIH_EPI_2.0iso_TR2_Run08",
    "PulseSequenceDetails": "%CustomerSeq%_inati_nih_epi",
    "ReceiveCoilName": "32Ch_Head_7T",
    "ReconMatrixPE": 96,
    "RepetitionTime": 2,
    "SAR": 0.0855205,
    "ScanningSequence": "EP",
    "SequenceName": "epfid2d1_96",
    "SequenceVariant": "SK",
    "SeriesDescription": "NIH_EPI_2.0iso_TR2_Run08",
    "SeriesNumber": 12,
    "ShimSetting": [
      -100,
      166,
      1204,
      2784,
      -173,
      729,
      151,
      -375
    ],
    "SliceThickness": 2,
    "SliceTiming": [
      1.005,
      0,
      1.0425,
      0.0375,
      1.08,
      0.075,
      1.1175,
      0.1125,
      1.1525,
      0.15,
      1.19,
      0.1875,
      1.2275,
      0.225,
      1.265,
      0.26,
      1.3025,
      0.2975,
      1.34,
      0.335,
      1.3775,
      0.3725,
      1.4125,
      0.41,
      1.45,
      0.4475,
      1.4875,
      0.485,
      1.525,
      0.5225,
      1.5625,
      0.5575,
      1.6,
      0.595,
      1.6375,
      0.6325,
      1.675,
      0.67,
      1.71,
      0.7075,
      1.7475,
      0.745,
      1.785,
      0.7825,
      1.8225,
      0.82,
      1.86,
      0.855,
      1.8975,
      0.8925,
      1.935,
      0.93,
      1.9725,
      0.9675
    ],
    "SoftwareVersions": "syngo_MR_B17",
    "SpacingBetweenSlices": 2,
    "StationName": "FMRIFD7T",
    "TaskName": "FullFovAttentionTask",
    "TotalReadoutTime": 0.0190001,
    "TxRefAmp": 270,
    "dataset": "ds001555",
    "dcmmeta_affine": [
      [
        -1.9999831914901733,
        4.2201880878778297e-10,
        0.008208253420889378,
        95.76705169677734
      ],
      [
        -0.0013402394251897931,
        1.973159670829773,
        -0.32655632495880127,
        -63.118167877197266
      ],
      [
        0.008098097518086433,
        0.32655906677246094,
        1.9731431007385254,
        -51.01611328125
      ],
      [
        0.0,
        0.0,
        0.0,
        1.0
      ]
    ],
    "dcmmeta_reorient_transform": [
      [
        0.0,
        -1.0,
        0.0,
        95.0
      ],
      [
        1.0,
        0.0,
        0.0,
        0.0
      ],
      [
        0.0,
        0.0,
        1.0,
        0.0
      ],
      [
        0.0,
        0.0,
        0.0,
        1.0
      ]
    ],
    "dcmmeta_shape": [
      96,
      96,
      54,
      164
    ],
    "dcmmeta_slice_dim": 2,
    "dcmmeta_version": 0.6,
    "global": {
      "const": {
        "AcquisitionMatrix": [
          0,
          96,
          96,
          0
        ],
        "Allergies": "No Known Allergies",
        "AngioFlag": "N",
        "BitsAllocated": 16,
        "BitsStored": 12,
        "BodyPartExamined": "HEAD",
        "Columns": 768,
        "EchoNumbers": 1,
        "EchoTime": 25.0,
        "EchoTrainLength": 1,
        "FlipAngle": 50.0,
        "HighBit": 11,
        "ImageOrientationPatient": [
          0.99999157803662,
          0.00067011969073,
          0.00404904870684,
          2.110094e-10,
          0.98657984636313,
          -0.1632795356133
        ],
        "ImagePositionPatient": [
          -767.761392775,
          -787.76398131462,
          87.009884915845
        ],
        "ImageType": [
          "ORIGINAL",
          "PRIMARY",
          "M",
          "ND",
          "ECHO_00",
          "MOSAIC"
        ],
        "ImagedNucleus": "1H",
        "ImagingFrequency": 297.205181,
        "InPlanePhaseEncodingDirection": "ROW",
        "LargestImagePixelValue": 4095,
        "MRAcquisitionType": "2D",
        "MagneticFieldStrength": 6.98,
        "Manufacturer": "SIEMENS",
        "ManufacturerModelName": "Investigational_Device_7T",
        "Modality": "MR",
        "NumberOfAverages": 1.0,
        "NumberOfPhaseEncodingSteps": 94,
        "PercentPhaseFieldOfView": 100.0,
        "PercentSampling": 100.0,
        "PerformedProcedureStepStartTime": "100542.421000",
        "PhotometricInterpretation": "MONOCHROME2",
        "PixelBandwidth": 2003.0,
        "PixelRepresentation": 0,
        "PixelSpacing": [
          2.0,
          2.0
        ],
        "PositionReferenceIndicator": "",
        "ProcedureCodeSequence": [
          {
            "CodeMeaning": "MRI Procedure Limited",
            "CodeValue": "MI01491",
            "CodingSchemeDesignator": "USA Standard",
            "ContextIdentifier": "4000109590"
          }
        ],
        "ProtocolName": "NIH_EPI_2.0iso_TR2_Run08",
        "ReferencedStudySequence": [
          {
            "ReferencedSOPClassUID": "1.2.840.10008.3.1.2.3.1",
            "ReferencedSOPInstanceUID": "1.2.840.113564.9.1.2723958737.61.2.5000075354"
          }
        ],
        "RepetitionTime": 2000.0,
        "RequestedProcedureCodeSequence": [
          {
            "CodeMeaning": "MRI Procedure Limited",
            "CodeValue": "MI01491",
            "CodingSchemeDesignator": "USA Standard",
            "ContextIdentifier": "4000109590"
          }
        ],
        "RequestingService": "MHMI",
        "Rows": 768,
        "SAR": 0.08552052865436,
        "SamplesPerPixel": 1,
        "ScanningSequence": "EP",
        "SequenceName": "epfid2d1_96",
        "SequenceVariant": "SK",
        "SeriesDescription": "NIH_EPI_2.0iso_TR2_Run08",
        "SeriesNumber": 12,
        "SliceLocation": -39.632187810606,
        "SliceThickness": 2.0,
        "SmallestImagePixelValue": 0,
        "SoftwareVersions": "syngo MR B17",
        "SpacingBetweenSlices": 2.0000000154846,
        "TransmitCoilName": "32Ch_Head_7T",
        "VariableFlipAngleFlag": "N",
        "WindowCenterWidthExplanation": "Algo1",
        "dBdt": 0.0
      },
      "slices": {}
    },
    "modality": "bold",
    "run_id": 9,
    "session_id": "01",
    "subject_id": "003",
    "task_id": "FullFovAttentionTask",
    "time": {
      "samples": {
        "AcquisitionNumber": [
          1,
          2,
          3,
          4,
          5,
          6,
          7,
          8,
          9,
          10,
          11,
          12,
          13,
          14,
          15,
          16,
          17,
          18,
          19,
          20,
          21,
          22,
          23,
          24,
          25,
          26,
          27,
          28,
          29,
          30,
          31,
          32,
          33,
          34,
          35,
          36,
          37,
          38,
          39,
          40,
          41,
          42,
          43,
          44,
          45,
          46,
          47,
          48,
          49,
          50,
          51,
          52,
          53,
          54,
          55,
          56,
          57,
          58,
          59,
          60,
          61,
          62,
          63,
          64,
          65,
          66,
          67,
          68,
          69,
          70,
          71,
          72,
          73,
          74,
          75,
          76,
          77,
          78,
          79,
          80,
          81,
          82,
          83,
          84,
          85,
          86,
          87,
          88,
          89,
          90,
          91,
          92,
          93,
          94,
          95,
          96,
          97,
          98,
          99,
          100,
          101,
          102,
          103,
          104,
          105,
          106,
          107,
          108,
          109,
          110,
          111,
          112,
          113,
          114,
          115,
          116,
          117,
          118,
          119,
          120,
          121,
          122,
          123,
          124,
          125,
          126,
          127,
          128,
          129,
          130,
          131,
          132,
          133,
          134,
          135,
          136,
          137,
          138,
          139,
          140,
          141,
          142,
          143,
          144,
          145,
          146,
          147,
          148,
          149,
          150,
          151,
          152,
          153,
          154,
          155,
          156,
          157,
          158,
          159,
          160,
          161,
          162,
          163,
          164
        ],
        "AcquisitionTime": [
          "111705.812500",
          "111709.827500",
          "111711.837500",
          "111713.845000",
          "111715.852500",
          "111717.860000",
          "111719.867500",
          "111721.877500",
          "111723.885000",
          "111725.892500",
          "111727.900000",
          "111729.907500",
          "111731.917500",
          "111733.925000",
          "111735.932500",
          "111737.940000",
          "111739.950000",
          "111741.957500",
          "111743.965000",
          "111745.972500",
          "111747.980000",
          "111749.990000",
          "111751.997500",
          "111754.005000",
          "111756.012500",
          "111758.020000",
          "111800.030000",
          "111802.037500",
          "111804.045000",
          "111806.052500",
          "111808.060000",
          "111810.070000",
          "111812.077500",
          "111814.085000",
          "111816.092500",
          "111818.102500",
          "111820.110000",
          "111822.117500",
          "111824.125000",
          "111826.132500",
          "111828.142500",
          "111830.150000",
          "111832.157500",
          "111834.165000",
          "111836.172500",
          "111838.182500",
          "111840.190000",
          "111842.197500",
          "111844.205000",
          "111846.215000",
          "111848.222500",
          "111850.230000",
          "111852.237500",
          "111854.245000",
          "111856.255000",
          "111858.262500",
          "111900.270000",
          "111902.277500",
          "111904.285000",
          "111906.295000",
          "111908.302500",
          "111910.310000",
          "111912.317500",
          "111914.327500",
          "111916.335000",
          "111918.342500",
          "111920.350000",
          "111922.357500",
          "111924.367500",
          "111926.375000",
          "111928.382500",
          "111930.390000",
          "111932.397500",
          "111934.407500",
          "111936.415000",
          "111938.422500",
          "111940.430000",
          "111942.440000",
          "111944.447500",
          "111946.455000",
          "111948.462500",
          "111950.470000",
          "111952.480000",
          "111954.487500",
          "111956.495000",
          "111958.502500",
          "112000.510000",
          "112002.520000",
          "112004.527500",
          "112006.535000",
          "112008.542500",
          "112010.550000",
          "112012.560000",
          "112014.567500",
          "112016.575000",
          "112018.582500",
          "112020.592500",
          "112022.600000",
          "112024.607500",
          "112026.615000",
          "112028.622500",
          "112030.632500",
          "112032.640000",
          "112034.647500",
          "112036.655000",
          "112038.662500",
          "112040.672500",
          "112042.680000",
          "112044.687500",
          "112046.695000",
          "112048.705000",
          "112050.712500",
          "112052.720000",
          "112054.727500",
          "112056.735000",
          "112058.745000",
          "112100.752500",
          "112102.760000",
          "112104.767500",
          "112106.775000",
          "112108.785000",
          "112110.792500",
          "112112.800000",
          "112114.807500",
          "112116.817500",
          "112118.825000",
          "112120.832500",
          "112122.840000",
          "112124.847500",
          "112126.857500",
          "112128.865000",
          "112130.872500",
          "112132.880000",
          "112134.887500",
          "112136.897500",
          "112138.905000",
          "112140.912500",
          "112142.920000",
          "112144.927500",
          "112146.937500",
          "112148.945000",
          "112150.952500",
          "112152.960000",
          "112154.970000",
          "112156.977500",
          "112158.985000",
          "112200.992500",
          "112203.000000",
          "112205.010000",
          "112207.017500",
          "112209.025000",
          "112211.032500",
          "112213.040000",
          "112215.050000",
          "112217.057500",
          "112219.065000",
          "112221.072500",
          "112223.082500",
          "112225.090000",
          "112227.097500",
          "112229.105000",
          "112231.112500",
          "112233.122500",
          "112235.130000"
        ],
        "ContentTime": [
          "111729.437000",
          "111729.453000",
          "111729.453000",
          "111729.468000",
          "111729.468000",
          "111729.468000",
          "111729.468000",
          "111729.468000",
          "111729.468000",
          "111809.437000",
          "111809.437000",
          "111809.437000",
          "111809.437000",
          "111809.437000",
          "111809.453000",
          "111809.453000",
          "111809.453000",
          "111809.453000",
          "111809.468000",
          "111809.468000",
          "111809.468000",
          "111809.468000",
          "111809.468000",
          "111809.468000",
          "111809.484000",
          "111809.484000",
          "111809.484000",
          "111809.484000",
          "111809.484000",
          "111809.500000",
          "111849.437000",
          "111849.437000",
          "111849.437000",
          "111849.437000",
          "111849.453000",
          "111849.453000",
          "111849.453000",
          "111849.453000",
          "111849.453000",
          "111849.468000",
          "111849.468000",
          "111849.468000",
          "111849.468000",
          "111849.468000",
          "111849.468000",
          "111849.484000",
          "111849.484000",
          "111849.484000",
          "111849.484000",
          "111849.500000",
          "111929.437000",
          "111929.437000",
          "111929.437000",
          "111929.437000",
          "111929.437000",
          "111929.453000",
          "111929.453000",
          "111929.453000",
          "111929.468000",
          "111929.468000",
          "111929.468000",
          "111929.468000",
          "111929.468000",
          "111929.468000",
          "111929.468000",
          "111929.484000",
          "111929.484000",
          "111929.484000",
          "111929.484000",
          "111929.500000",
          "112009.437000",
          "112009.437000",
          "112009.437000",
          "112009.437000",
          "112009.437000",
          "112009.453000",
          "112009.453000",
          "112009.453000",
          "112009.453000",
          "112009.453000",
          "112009.453000",
          "112009.453000",
          "112009.468000",
          "112009.468000",
          "112009.468000",
          "112009.468000",
          "112009.484000",
          "112009.484000",
          "112009.484000",
          "112009.484000",
          "112049.437000",
          "112049.437000",
          "112049.437000",
          "112049.437000",
          "112049.437000",
          "112049.453000",
          "112049.453000",
          "112049.453000",
          "112049.453000",
          "112049.453000",
          "112049.453000",
          "112049.468000",
          "112049.468000",
          "112049.468000",
          "112049.468000",
          "112049.484000",
          "112049.484000",
          "112049.484000",
          "112049.484000",
          "112049.484000",
          "112129.437000",
          "112129.437000",
          "112129.453000",
          "112129.453000",
          "112129.453000",
          "112129.453000",
          "112129.453000",
          "112129.468000",
          "112129.468000",
          "112129.468000",
          "112129.468000",
          "112129.468000",
          "112129.468000",
          "112129.468000",
          "112129.484000",
          "112129.484000",
          "112129.484000",
          "112129.484000",
          "112129.484000",
          "112129.500000",
          "112209.437000",
          "112209.437000",
          "112209.453000",
          "112209.453000",
          "112209.453000",
          "112209.453000",
          "112209.453000",
          "112209.468000",
          "112209.468000",
          "112209.468000",
          "112209.468000",
          "112209.468000",
          "112209.468000",
          "112209.484000",
          "112209.484000",
          "112209.484000",
          "112209.484000",
          "112209.484000",
          "112209.500000",
          "112209.500000",
          "112235.656000",
          "112235.656000",
          "112235.656000",
          "112235.656000",
          "112235.656000",
          "112235.656000",
          "112235.671000",
          "112235.671000",
          "112235.671000",
          "112235.671000",
          "112235.671000",
          "112235.687000",
          "112235.687000",
          "112235.687000"
        ],
        "InstanceCreationTime": [
          "111729.437000",
          "111729.453000",
          "111729.453000",
          "111729.468000",
          "111729.468000",
          "111729.468000",
          "111729.468000",
          "111729.468000",
          "111729.468000",
          "111809.437000",
          "111809.437000",
          "111809.437000",
          "111809.437000",
          "111809.437000",
          "111809.453000",
          "111809.453000",
          "111809.453000",
          "111809.453000",
          "111809.468000",
          "111809.468000",
          "111809.468000",
          "111809.468000",
          "111809.468000",
          "111809.468000",
          "111809.484000",
          "111809.484000",
          "111809.484000",
          "111809.484000",
          "111809.484000",
          "111809.500000",
          "111849.437000",
          "111849.437000",
          "111849.437000",
          "111849.437000",
          "111849.453000",
          "111849.453000",
          "111849.453000",
          "111849.453000",
          "111849.453000",
          "111849.468000",
          "111849.468000",
          "111849.468000",
          "111849.468000",
          "111849.468000",
          "111849.468000",
          "111849.484000",
          "111849.484000",
          "111849.484000",
          "111849.484000",
          "111849.500000",
          "111929.437000",
          "111929.437000",
          "111929.437000",
          "111929.437000",
          "111929.437000",
          "111929.453000",
          "111929.453000",
          "111929.453000",
          "111929.468000",
          "111929.468000",
          "111929.468000",
          "111929.468000",
          "111929.468000",
          "111929.468000",
          "111929.468000",
          "111929.484000",
          "111929.484000",
          "111929.484000",
          "111929.484000",
          "111929.500000",
          "112009.437000",
          "112009.437000",
          "112009.437000",
          "112009.437000",
          "112009.437000",
          "112009.453000",
          "112009.453000",
          "112009.453000",
          "112009.453000",
          "112009.453000",
          "112009.453000",
          "112009.453000",
          "112009.468000",
          "112009.468000",
          "112009.468000",
          "112009.468000",
          "112009.484000",
          "112009.484000",
          "112009.484000",
          "112009.484000",
          "112049.437000",
          "112049.437000",
          "112049.437000",
          "112049.437000",
          "112049.437000",
          "112049.453000",
          "112049.453000",
          "112049.453000",
          "112049.453000",
          "112049.453000",
          "112049.453000",
          "112049.468000",
          "112049.468000",
          "112049.468000",
          "112049.468000",
          "112049.484000",
          "112049.484000",
          "112049.484000",
          "112049.484000",
          "112049.484000",
          "112129.437000",
          "112129.437000",
          "112129.453000",
          "112129.453000",
          "112129.453000",
          "112129.453000",
          "112129.453000",
          "112129.468000",
          "112129.468000",
          "112129.468000",
          "112129.468000",
          "112129.468000",
          "112129.468000",
          "112129.468000",
          "112129.484000",
          "112129.484000",
          "112129.484000",
          "112129.484000",
          "112129.484000",
          "112129.500000",
          "112209.437000",
          "112209.437000",
          "112209.453000",
          "112209.453000",
          "112209.453000",
          "112209.453000",
          "112209.453000",
          "112209.468000",
          "112209.468000",
          "112209.468000",
          "112209.468000",
          "112209.468000",
          "112209.468000",
          "112209.484000",
          "112209.484000",
          "112209.484000",
          "112209.484000",
          "112209.484000",
          "112209.500000",
          "112209.500000",
          "112235.656000",
          "112235.656000",
          "112235.656000",
          "112235.656000",
          "112235.656000",
          "112235.656000",
          "112235.671000",
          "112235.671000",
          "112235.671000",
          "112235.671000",
          "112235.671000",
          "112235.687000",
          "112235.687000",
          "112235.687000"
        ],
        "InstanceNumber": [
          1,
          2,
          3,
          4,
          5,
          6,
          7,
          8,
          9,
          10,
          11,
          12,
          13,
          14,
          15,
          16,
          17,
          18,
          19,
          20,
          21,
          22,
          23,
          24,
          25,
          26,
          27,
          28,
          29,
          30,
          31,
          32,
          33,
          34,
          35,
          36,
          37,
          38,
          39,
          40,
          41,
          42,
          43,
          44,
          45,
          46,
          47,
          48,
          49,
          50,
          51,
          52,
          53,
          54,
          55,
          56,
          57,
          58,
          59,
          60,
          61,
          62,
          63,
          64,
          65,
          66,
          67,
          68,
          69,
          70,
          71,
          72,
          73,
          74,
          75,
          76,
          77,
          78,
          79,
          80,
          81,
          82,
          83,
          84,
          85,
          86,
          87,
          88,
          89,
          90,
          91,
          92,
          93,
          94,
          95,
          96,
          97,
          98,
          99,
          100,
          101,
          102,
          103,
          104,
          105,
          106,
          107,
          108,
          109,
          110,
          111,
          112,
          113,
          114,
          115,
          116,
          117,
          118,
          119,
          120,
          121,
          122,
          123,
          124,
          125,
          126,
          127,
          128,
          129,
          130,
          131,
          132,
          133,
          134,
          135,
          136,
          137,
          138,
          139,
          140,
          141,
          142,
          143,
          144,
          145,
          146,
          147,
          148,
          149,
          150,
          151,
          152,
          153,
          154,
          155,
          156,
          157,
          158,
          159,
          160,
          161,
          162,
          163,
          164
        ],
        "WindowCenter": [
          936.0,
          935.0,
          936.0,
          936.0,
          935.0,
          937.0,
          937.0,
          939.0,
          938.0,
          938.0,
          937.0,
          937.0,
          937.0,
          936.0,
          936.0,
          937.0,
          938.0,
          939.0,
          938.0,
          937.0,
          937.0,
          937.0,
          938.0,
          938.0,
          938.0,
          938.0,
          938.0,
          937.0,
          937.0,
          937.0,
          937.0,
          936.0,
          936.0,
          937.0,
          937.0,
          936.0,
          937.0,
          938.0,
          936.0,
          937.0,
          936.0,
          937.0,
          938.0,
          938.0,
          938.0,
          937.0,
          937.0,
          938.0,
          939.0,
          939.0,
          938.0,
          937.0,
          937.0,
          936.0,
          936.0,
          936.0,
          936.0,
          937.0,
          937.0,
          939.0,
          938.0,
          937.0,
          937.0,
          936.0,
          937.0,
          938.0,
          937.0,
          937.0,
          936.0,
          936.0,
          936.0,
          937.0,
          938.0,
          936.0,
          936.0,
          936.0,
          936.0,
          938.0,
          938.0,
          937.0,
          936.0,
          936.0,
          937.0,
          938.0,
          938.0,
          938.0,
          937.0,
          937.0,
          937.0,
          937.0,
          938.0,
          938.0,
          937.0,
          936.0,
          937.0,
          938.0,
          938.0,
          938.0,
          937.0,
          936.0,
          936.0,
          936.0,
          937.0,
          937.0,
          937.0,
          936.0,
          938.0,
          938.0,
          938.0,
          937.0,
          936.0,
          936.0,
          937.0,
          938.0,
          937.0,
          937.0,
          936.0,
          936.0,
          936.0,
          936.0,
          937.0,
          936.0,
          937.0,
          937.0,
          936.0,
          935.0,
          935.0,
          935.0,
          936.0,
          935.0,
          935.0,
          936.0,
          936.0,
          936.0,
          935.0,
          935.0,
          937.0,
          939.0,
          939.0,
          937.0,
          936.0,
          937.0,
          939.0,
          938.0,
          937.0,
          935.0,
          936.0,
          937.0,
          938.0,
          938.0,
          937.0,
          935.0,
          935.0,
          937.0,
          937.0,
          936.0,
          936.0,
          936.0,
          936.0,
          937.0,
          937.0,
          937.0,
          937.0,
          937.0
        ],
        "WindowWidth": [
          2456.0,
          2461.0,
          2464.0,
          2461.0,
          2459.0,
          2462.0,
          2470.0,
          2481.0,
          2474.0,
          2465.0,
          2461.0,
          2463.0,
          2466.0,
          2463.0,
          2461.0,
          2466.0,
          2473.0,
          2470.0,
          2465.0,
          2464.0,
          2467.0,
          2466.0,
          2463.0,
          2467.0,
          2471.0,
          2468.0,
          2461.0,
          2461.0,
          2460.0,
          2465.0,
          2465.0,
          2460.0,
          2460.0,
          2461.0,
          2463.0,
          2461.0,
          2470.0,
          2471.0,
          2466.0,
          2461.0,
          2463.0,
          2470.0,
          2477.0,
          2476.0,
          2473.0,
          2469.0,
          2470.0,
          2475.0,
          2481.0,
          2483.0,
          2472.0,
          2463.0,
          2461.0,
          2462.0,
          2463.0,
          2459.0,
          2458.0,
          2461.0,
          2472.0,
          2483.0,
          2483.0,
          2471.0,
          2463.0,
          2464.0,
          2469.0,
          2469.0,
          2467.0,
          2465.0,
          2462.0,
          2463.0,
          2468.0,
          2475.0,
          2471.0,
          2467.0,
          2464.0,
          2465.0,
          2471.0,
          2482.0,
          2476.0,
          2462.0,
          2461.0,
          2464.0,
          2471.0,
          2477.0,
          2480.0,
          2476.0,
          2471.0,
          2470.0,
          2475.0,
          2481.0,
          2482.0,
