{
  "aor": 0.0029897560975609755,
  "aqi": 0.006212169634146341,
  "bids_meta": {
    "AcquisitionMatrixPE": 96,
    "AcquisitionNumber": 1,
    "AcquisitionTime": "17:46:7.830000",
    "BandwidthPerPixelPhaseEncode": 52.083,
    "BaseResolution": 96,
    "BodyPartExamined": "HEAD",
    "ConversionSoftware": "dcm2niix",
    "ConversionSoftwareVersion": "v1.0.20180622 GCC6.3.0",
    "DerivedVendorReportedEchoSpacing": 0.000600004,
    "DeviceSerialNumber": "18926",
    "DwellTime": 2.6e-06,
    "EchoTime": 0.025,
    "EffectiveEchoSpacing": 0.000200001,
    "FlipAngle": 50,
    "ImageOrientationPatientDICOM": [
      0.999992,
      0.00075477,
      0.00403413,
      1.95081e-10,
      0.982944,
      -0.183905
    ],
    "ImageType": [
      "ORIGINAL",
      "PRIMARY",
      "M",
      "ND",
      "ECHO",
      "00",
      "MOSAIC"
    ],
    "InPlanePhaseEncodingDirectionDICOM": "ROW",
    "InstitutionName": "NIMH",
    "InstitutionalDepartmentName": "Department",
    "MRAcquisitionType": "2D",
    "MagneticFieldStrength": 6.98,
    "Manufacturer": "Siemens",
    "ManufacturersModelName": "Investigational_Device_7T",
    "Modality": "MR",
    "ParallelReductionFactorInPlane": 3,
    "PartialFourier": 1,
    "PatientPosition": "HFS",
    "PercentPhaseFOV": 100,
    "PhaseEncodingDirection": "i",
    "PhaseEncodingSteps": 94,
    "PhaseResolution": 1,
    "PixelBandwidth": 2003,
    "ProcedureStepDescription": "MRI_Procedure_Limited",
    "ProtocolName": "NIH_EPI_2.0iso_TR2_Run03",
    "PulseSequenceDetails": "%CustomerSeq%_inati_nih_epi",
    "ReceiveCoilName": "32Ch_Head_7T",
    "ReconMatrixPE": 96,
    "RepetitionTime": 2,
    "SAR": 0.0759193,
    "ScanningSequence": "EP",
    "SequenceName": "epfid2d1_96",
    "SequenceVariant": "SK",
    "SeriesDescription": "NIH_EPI_2.0iso_TR2_Run03",
    "SeriesNumber": 7,
    "ShimSetting": [
      -81,
      225,
      813,
      914,
      -204,
      728,
      -152,
      -457
    ],
    "SliceThickness": 2,
    "SliceTiming": [
      1.0025,
      0,
      1.04,
      0.0375,
      1.0775,
      0.075,
      1.115,
      0.1125,
      1.1525,
      0.1475,
      1.19,
      0.185,
      1.2275,
      0.2225,
      1.265,
      0.26,
      1.3,
      0.2975,
      1.3375,
      0.335,
      1.375,
      0.3725,
      1.4125,
      0.41,
      1.45,
      0.445,
      1.4875,
      0.4825,
      1.525,
      0.52,
      1.5625,
      0.5575,
      1.5975,
      0.595,
      1.635,
      0.6325,
      1.6725,
      0.67,
      1.71,
      0.7075,
      1.7475,
      0.7425,
      1.785,
      0.78,
      1.8225,
      0.8175,
      1.86,
      0.855,
      1.895,
      0.8925,
      1.9325,
      0.93,
      1.97,
      0.9675
    ],
    "SoftwareVersions": "syngo_MR_B17",
    "SpacingBetweenSlices": 2,
    "StationName": "FMRIFD7T",
    "TaskName": "HalfFovNoTask",
    "TotalReadoutTime": 0.0190001,
    "TxRefAmp": 318,
    "dataset": "ds001555",
    "dcmmeta_affine": [
      [
        -1.9999831914901733,
        3.901620138080375e-10,
        0.008208253420889378,
        95.76705169677734
      ],
      [
        -0.001509539200924337,
        1.9658880233764648,
        -0.3678070902824402,
        -55.60440444946289
      ],
      [
        0.00806825328618288,
        0.3678101897239685,
        1.9658714532852173,
        -48.712867736816406
      ],
      [
        0.0,
        0.0,
        0.0,
        1.0
      ]
    ],
    "dcmmeta_reorient_transform": [
      [
        0.0,
        -1.0,
        0.0,
        95.0
      ],
      [
        1.0,
        0.0,
        0.0,
        0.0
      ],
      [
        0.0,
        0.0,
        1.0,
        0.0
      ],
      [
        0.0,
        0.0,
        0.0,
        1.0
      ]
    ],
    "dcmmeta_shape": [
      96,
      96,
      54,
      164
    ],
    "dcmmeta_slice_dim": 2,
    "dcmmeta_version": 0.6,
    "global": {
      "const": {
        "AcquisitionMatrix": [
          0,
          96,
          96,
          0
        ],
        "Allergies": "No Known Allergies",
        "AngioFlag": "N",
        "BitsAllocated": 16,
        "BitsStored": 12,
        "BodyPartExamined": "HEAD",
        "Columns": 768,
        "EchoNumbers": 1,
        "EchoTime": 25.0,
        "EchoTrainLength": 1,
        "FlipAngle": 50.0,
        "HighBit": 11,
        "ImageOrientationPatient": [
          0.99999157803709,
          0.00075476959348,
          0.00403412664115,
          1.95081e-10,
          0.98294400458809,
          -0.1839050946666
        ],
        "ImagePositionPatient": [
          -767.76139276313,
          -792.20053390714,
          107.10239025995
        ],
        "ImageType": [
          "ORIGINAL",
          "PRIMARY",
          "M",
          "ND",
          "ECHO_00",
          "MOSAIC"
        ],
        "ImagedNucleus": "1H",
        "ImagingFrequency": 297.2051,
        "InPlanePhaseEncodingDirection": "ROW",
        "LargestImagePixelValue": 4095,
        "MRAcquisitionType": "2D",
        "MagneticFieldStrength": 6.98,
        "Manufacturer": "SIEMENS",
        "ManufacturerModelName": "Investigational_Device_7T",
        "Modality": "MR",
        "NumberOfAverages": 1.0,
        "NumberOfPhaseEncodingSteps": 94,
        "PercentPhaseFieldOfView": 100.0,
        "PercentSampling": 100.0,
        "PerformedProcedureStepStartTime": "171202.224000",
        "PhotometricInterpretation": "MONOCHROME2",
        "PixelBandwidth": 2003.0,
        "PixelRepresentation": 0,
        "PixelSpacing": [
          2.0,
          2.0
        ],
        "PositionReferenceIndicator": "",
        "ProcedureCodeSequence": [
          {
            "CodeMeaning": "MRI Procedure Limited",
            "CodeValue": "MI01491",
            "CodingSchemeDesignator": "USA Standard",
            "ContextIdentifier": "4000100971"
          }
        ],
        "ProtocolName": "NIH_EPI_2.0iso_TR2_Run03",
        "ReferencedStudySequence": [
          {
            "ReferencedSOPClassUID": "1.2.840.10008.3.1.2.3.1",
            "ReferencedSOPInstanceUID": "1.2.840.113564.9.1.2723958737.61.2.5000066736"
          }
        ],
        "RepetitionTime": 2000.0,
        "RequestedProcedureCodeSequence": [
          {
            "CodeMeaning": "MRI Procedure Limited",
            "CodeValue": "MI01491",
            "CodingSchemeDesignator": "USA Standard",
            "ContextIdentifier": "4000100971"
          }
        ],
        "RequestingService": "MHMI",
        "Rows": 768,
        "SAR": 0.07591928494032,
        "SamplesPerPixel": 1,
        "ScanningSequence": "EP",
        "SequenceName": "epfid2d1_96",
        "SequenceVariant": "SK",
        "SeriesDescription": "NIH_EPI_2.0iso_TR2_Run03",
        "SeriesNumber": 7,
        "SliceLocation": -37.262731504108,
        "SliceThickness": 2.0,
        "SmallestImagePixelValue": 0,
        "SoftwareVersions": "syngo MR B17",
        "SpacingBetweenSlices": 1.9999999647591,
        "TransmitCoilName": "32Ch_Head_7T",
        "VariableFlipAngleFlag": "N",
        "WindowCenterWidthExplanation": "Algo1",
        "dBdt": 0.0
      },
      "slices": {}
    },
    "modality": "bold",
    "run_id": 4,
    "session_id": "05",
    "subject_id": "001",
    "task_id": "HalfFovNoTask",
    "time": {
      "samples": {
        "AcquisitionNumber": [
          1,
          2,
          3,
          4,
          5,
          6,
          7,
          8,
          9,
          10,
          11,
          12,
          13,
          14,
          15,
          16,
          17,
          18,
          19,
          20,
          21,
          22,
          23,
          24,
          25,
          26,
          27,
          28,
          29,
          30,
          31,
          32,
          33,
          34,
          35,
          36,
          37,
          38,
          39,
          40,
          41,
          42,
          43,
          44,
          45,
          46,
          47,
          48,
          49,
          50,
          51,
          52,
          53,
          54,
          55,
          56,
          57,
          58,
          59,
          60,
          61,
          62,
          63,
          64,
          65,
          66,
          67,
          68,
          69,
          70,
          71,
          72,
          73,
          74,
          75,
          76,
          77,
          78,
          79,
          80,
          81,
          82,
          83,
          84,
          85,
          86,
          87,
          88,
          89,
          90,
          91,
          92,
          93,
          94,
          95,
          96,
          97,
          98,
          99,
          100,
          101,
          102,
          103,
          104,
          105,
          106,
          107,
          108,
          109,
          110,
          111,
          112,
          113,
          114,
          115,
          116,
          117,
          118,
          119,
          120,
          121,
          122,
          123,
          124,
          125,
          126,
          127,
          128,
          129,
          130,
          131,
          132,
          133,
          134,
          135,
          136,
          137,
          138,
          139,
          140,
          141,
          142,
          143,
          144,
          145,
          146,
          147,
          148,
          149,
          150,
          151,
          152,
          153,
          154,
          155,
          156,
          157,
          158,
          159,
          160,
          161,
          162,
          163,
          164
        ],
        "AcquisitionTime": [
          "174607.830000",
          "174611.847500",
          "174613.855000",
          "174615.862500",
          "174617.872500",
          "174619.880000",
          "174621.887500",
          "174623.895000",
          "174625.902500",
          "174627.912500",
          "174629.920000",
          "174631.927500",
          "174633.935000",
          "174635.942500",
          "174637.952500",
          "174639.960000",
          "174641.967500",
          "174643.975000",
          "174645.985000",
          "174647.992500",
          "174650.000000",
          "174652.007500",
          "174654.015000",
          "174656.025000",
          "174658.032500",
          "174700.040000",
          "174702.047500",
          "174704.055000",
          "174706.065000",
          "174708.072500",
          "174710.080000",
          "174712.087500",
          "174714.097500",
          "174716.105000",
          "174718.112500",
          "174720.120000",
          "174722.127500",
          "174724.137500",
          "174726.145000",
          "174728.152500",
          "174730.160000",
          "174732.167500",
          "174734.177500",
          "174736.185000",
          "174738.192500",
          "174740.200000",
          "174742.210000",
          "174744.217500",
          "174746.225000",
          "174748.232500",
          "174750.240000",
          "174752.250000",
          "174754.257500",
          "174756.265000",
          "174758.272500",
          "174800.280000",
          "174802.290000",
          "174804.297500",
          "174806.305000",
          "174808.312500",
          "174810.320000",
          "174812.330000",
          "174814.337500",
          "174816.345000",
          "174818.352500",
          "174820.362500",
          "174822.370000",
          "174824.377500",
          "174826.385000",
          "174828.392500",
          "174830.402500",
          "174832.410000",
          "174834.417500",
          "174836.425000",
          "174838.432500",
          "174840.442500",
          "174842.450000",
          "174844.457500",
          "174846.465000",
          "174848.475000",
          "174850.482500",
          "174852.490000",
          "174854.497500",
          "174856.505000",
          "174858.515000",
          "174900.522500",
          "174902.530000",
          "174904.537500",
          "174906.545000",
          "174908.555000",
          "174910.562500",
          "174912.570000",
          "174914.577500",
          "174916.587500",
          "174918.595000",
          "174920.602500",
          "174922.610000",
          "174924.617500",
          "174926.627500",
          "174928.635000",
          "174930.642500",
          "174932.650000",
          "174934.657500",
          "174936.667500",
          "174938.675000",
          "174940.682500",
          "174942.690000",
          "174944.697500",
          "174946.707500",
          "174948.715000",
          "174950.722500",
          "174952.730000",
          "174954.740000",
          "174956.747500",
          "174958.755000",
          "175000.762500",
          "175002.770000",
          "175004.780000",
          "175006.787500",
          "175008.795000",
          "175010.802500",
          "175012.810000",
          "175014.820000",
          "175016.827500",
          "175018.835000",
          "175020.842500",
          "175022.852500",
          "175024.860000",
          "175026.867500",
          "175028.875000",
          "175030.882500",
          "175032.892500",
          "175034.900000",
          "175036.907500",
          "175038.915000",
          "175040.922500",
          "175042.932500",
          "175044.940000",
          "175046.947500",
          "175048.955000",
          "175050.965000",
          "175052.972500",
          "175054.980000",
          "175056.987500",
          "175058.995000",
          "175101.005000",
          "175103.012500",
          "175105.020000",
          "175107.027500",
          "175109.035000",
          "175111.045000",
          "175113.052500",
          "175115.060000",
          "175117.067500",
          "175119.075000",
          "175121.085000",
          "175123.092500",
          "175125.100000",
          "175127.107500",
          "175129.117500",
          "175131.125000",
          "175133.132500",
          "175135.140000",
          "175137.147500"
        ],
        "ContentTime": [
          "174700.614000",
          "174700.614000",
          "174700.614000",
          "174700.614000",
          "174700.630000",
          "174700.630000",
          "174700.630000",
          "174700.630000",
          "174700.630000",
          "174700.630000",
          "174700.630000",
          "174700.646000",
          "174700.646000",
          "174700.646000",
          "174700.646000",
          "174700.646000",
          "174700.646000",
          "174700.646000",
          "174700.661000",
          "174700.661000",
          "174700.661000",
          "174700.661000",
          "174700.661000",
          "174700.677000",
          "174700.677000",
          "174740.599000",
          "174740.599000",
          "174740.599000",
          "174740.614000",
          "174740.614000",
          "174740.614000",
          "174740.614000",
          "174740.614000",
          "174740.614000",
          "174740.630000",
          "174740.630000",
          "174740.630000",
          "174740.630000",
          "174740.630000",
          "174740.630000",
          "174740.646000",
          "174740.646000",
          "174740.646000",
          "174740.646000",
          "174740.646000",
          "174820.599000",
          "174820.599000",
          "174820.599000",
          "174820.599000",
          "174820.599000",
          "174820.614000",
          "174820.614000",
          "174820.614000",
          "174820.614000",
          "174820.614000",
          "174820.614000",
          "174820.630000",
          "174820.630000",
          "174820.630000",
          "174820.630000",
          "174820.630000",
          "174820.646000",
          "174820.646000",
          "174820.646000",
          "174820.646000",
          "174900.599000",
          "174900.599000",
          "174900.599000",
          "174900.599000",
          "174900.614000",
          "174900.614000",
          "174900.614000",
          "174900.614000",
          "174900.630000",
          "174900.630000",
          "174900.630000",
          "174900.630000",
          "174900.630000",
          "174900.630000",
          "174900.646000",
          "174900.646000",
          "174900.646000",
          "174900.646000",
          "174900.646000",
          "174900.646000",
          "174940.599000",
          "174940.599000",
          "174940.599000",
          "174940.599000",
          "174940.599000",
          "174940.614000",
          "174940.614000",
          "174940.614000",
          "174940.630000",
          "174940.630000",
          "174940.630000",
          "174940.630000",
          "174940.630000",
          "174940.630000",
          "174940.630000",
          "174940.646000",
          "174940.646000",
          "174940.646000",
          "174940.646000",
          "174940.646000",
          "175020.599000",
          "175020.599000",
          "175020.599000",
          "175020.599000",
          "175020.599000",
          "175020.614000",
          "175020.614000",
          "175020.614000",
          "175020.614000",
          "175020.614000",
          "175020.614000",
          "175020.630000",
          "175020.630000",
          "175020.630000",
          "175020.630000",
          "175020.630000",
          "175020.630000",
          "175020.630000",
          "175020.646000",
          "175020.646000",
          "175100.599000",
          "175100.599000",
          "175100.599000",
          "175100.614000",
          "175100.614000",
          "175100.614000",
          "175100.614000",
          "175100.614000",
          "175100.630000",
          "175100.630000",
          "175100.630000",
          "175100.630000",
          "175100.630000",
          "175100.646000",
          "175100.646000",
          "175100.646000",
          "175100.646000",
          "175100.646000",
          "175100.661000",
          "175100.661000",
          "175137.802000",
          "175137.817000",
          "175137.817000",
          "175137.817000",
          "175137.817000",
          "175137.817000",
          "175137.833000",
          "175137.833000",
          "175137.833000",
          "175137.833000",
          "175137.849000",
          "175137.849000",
          "175137.849000",
          "175137.849000",
          "175137.849000",
          "175137.864000",
          "175137.864000",
          "175137.864000",
          "175137.864000"
        ],
        "InstanceCreationTime": [
          "174700.614000",
          "174700.614000",
          "174700.614000",
          "174700.614000",
          "174700.630000",
          "174700.630000",
          "174700.630000",
          "174700.630000",
          "174700.630000",
          "174700.630000",
          "174700.630000",
          "174700.646000",
          "174700.646000",
          "174700.646000",
          "174700.646000",
          "174700.646000",
          "174700.646000",
          "174700.646000",
          "174700.661000",
          "174700.661000",
          "174700.661000",
          "174700.661000",
          "174700.661000",
          "174700.677000",
          "174700.677000",
          "174740.599000",
          "174740.599000",
          "174740.599000",
          "174740.614000",
          "174740.614000",
          "174740.614000",
          "174740.614000",
          "174740.614000",
          "174740.614000",
          "174740.630000",
          "174740.630000",
          "174740.630000",
          "174740.630000",
          "174740.630000",
          "174740.630000",
          "174740.646000",
          "174740.646000",
          "174740.646000",
          "174740.646000",
          "174740.646000",
          "174820.599000",
          "174820.599000",
          "174820.599000",
          "174820.599000",
          "174820.599000",
          "174820.614000",
          "174820.614000",
          "174820.614000",
          "174820.614000",
          "174820.614000",
          "174820.614000",
          "174820.630000",
          "174820.630000",
          "174820.630000",
          "174820.630000",
          "174820.630000",
          "174820.646000",
          "174820.646000",
          "174820.646000",
          "174820.646000",
          "174900.599000",
          "174900.599000",
          "174900.599000",
          "174900.599000",
          "174900.614000",
          "174900.614000",
          "174900.614000",
          "174900.614000",
          "174900.630000",
          "174900.630000",
          "174900.630000",
          "174900.630000",
          "174900.630000",
          "174900.630000",
          "174900.646000",
          "174900.646000",
          "174900.646000",
          "174900.646000",
          "174900.646000",
          "174900.646000",
          "174940.599000",
          "174940.599000",
          "174940.599000",
          "174940.599000",
          "174940.599000",
          "174940.614000",
          "174940.614000",
          "174940.614000",
          "174940.630000",
          "174940.630000",
          "174940.630000",
          "174940.630000",
          "174940.630000",
          "174940.630000",
          "174940.630000",
          "174940.646000",
          "174940.646000",
          "174940.646000",
          "174940.646000",
          "174940.646000",
          "175020.599000",
          "175020.599000",
          "175020.599000",
          "175020.599000",
          "175020.599000",
          "175020.614000",
          "175020.614000",
          "175020.614000",
          "175020.614000",
          "175020.614000",
          "175020.614000",
          "175020.630000",
          "175020.630000",
          "175020.630000",
          "175020.630000",
          "175020.630000",
          "175020.630000",
          "175020.630000",
          "175020.646000",
          "175020.646000",
          "175100.599000",
          "175100.599000",
          "175100.599000",
          "175100.614000",
          "175100.614000",
          "175100.614000",
          "175100.614000",
          "175100.614000",
          "175100.630000",
          "175100.630000",
          "175100.630000",
          "175100.630000",
          "175100.630000",
          "175100.646000",
          "175100.646000",
          "175100.646000",
          "175100.646000",
          "175100.646000",
          "175100.661000",
          "175100.661000",
          "175137.802000",
          "175137.817000",
          "175137.817000",
          "175137.817000",
          "175137.817000",
          "175137.817000",
          "175137.833000",
          "175137.833000",
          "175137.833000",
          "175137.833000",
          "175137.849000",
          "175137.849000",
          "175137.849000",
          "175137.849000",
          "175137.849000",
          "175137.864000",
          "175137.864000",
          "175137.864000",
          "175137.864000"
        ],
        "InstanceNumber": [
          1,
          2,
          3,
          4,
          5,
          6,
          7,
          8,
          9,
          10,
          11,
          12,
          13,
          14,
          15,
          16,
          17,
          18,
          19,
          20,
          21,
          22,
          23,
          24,
          25,
          26,
          27,
          28,
          29,
          30,
          31,
          32,
          33,
          34,
          35,
          36,
          37,
          38,
          39,
          40,
          41,
          42,
          43,
          44,
          45,
          46,
          47,
          48,
          49,
          50,
          51,
          52,
          53,
          54,
          55,
          56,
          57,
          58,
          59,
          60,
          61,
          62,
          63,
          64,
          65,
          66,
          67,
          68,
          69,
          70,
          71,
          72,
          73,
          74,
          75,
          76,
          77,
          78,
          79,
          80,
          81,
          82,
          83,
          84,
          85,
          86,
          87,
          88,
          89,
          90,
          91,
          92,
          93,
          94,
          95,
          96,
          97,
          98,
          99,
          100,
          101,
          102,
          103,
          104,
          105,
          106,
          107,
          108,
          109,
          110,
          111,
          112,
          113,
          114,
          115,
          116,
          117,
          118,
          119,
          120,
          121,
          122,
          123,
          124,
          125,
          126,
          127,
          128,
          129,
          130,
          131,
          132,
          133,
          134,
          135,
          136,
          137,
          138,
          139,
          140,
          141,
          142,
          143,
          144,
          145,
          146,
          147,
          148,
          149,
          150,
          151,
          152,
          153,
          154,
          155,
          156,
          157,
          158,
          159,
          160,
          161,
          162,
          163,
          164
        ],
        "WindowCenter": [
          1225.0,
          1221.0,
          1223.0,
          1226.0,
          1228.0,
          1226.0,
          1226.0,
          1227.0,
          1230.0,
          1232.0,
          1231.0,
          1229.0,
          1224.0,
          1223.0,
          1222.0,
          1223.0,
          1222.0,
          1222.0,
          1222.0,
          1221.0,
          1221.0,
          1221.0,
          1223.0,
          1223.0,
          1223.0,
          1223.0,
          1222.0,
          1222.0,
          1224.0,
          1224.0,
          1225.0,
          1226.0,
          1226.0,
          1227.0,
          1226.0,
          1225.0,
          1222.0,
          1221.0,
          1225.0,
          1227.0,
          1228.0,
          1225.0,
          1224.0,
          1226.0,
          1227.0,
          1226.0,
          1223.0,
          1220.0,
          1224.0,
          1227.0,
          1227.0,
          1224.0,
          1221.0,
          1227.0,
          1228.0,
          1227.0,
          1224.0,
          1223.0,
          1224.0,
          1224.0,
          1225.0,
          1225.0,
          1224.0,
          1224.0,
          1226.0,
          1226.0,
          1224.0,
          1223.0,
          1224.0,
          1226.0,
          1225.0,
          1225.0,
          1224.0,
          1223.0,
          1223.0,
          1221.0,
          1221.0,
          1224.0,
          1225.0,
          1224.0,
          1224.0,
          1224.0,
          1225.0,
          1226.0,
          1225.0,
          1225.0,
          1223.0,
          1225.0,
          1227.0,
          1227.0,
          1226.0,
          1226.0,
          1227.0,
          1225.0,
          1226.0,
          1226.0,
          1226.0,
          1224.0,
          1222.0,
          1225.0,
          1224.0,
          1222.0,
          1221.0,
          1220.0,
          1224.0,
          1225.0,
          1226.0,
          1225.0,
          1224.0,
          1224.0,
          1225.0,
          1225.0,
          1224.0,
          1224.0,
          1225.0,
          1224.0,
          1223.0,
          1223.0,
          1224.0,
          1225.0,
          1225.0,
          1226.0,
          1224.0,
          1223.0,
          1224.0,
          1226.0,
          1225.0,
          1224.0,
          1223.0,
          1223.0,
          1223.0,
          1223.0,
          1223.0,
          1225.0,
          1226.0,
          1229.0,
          1229.0,
          1229.0,
          1224.0,
          1222.0,
          1224.0,
          1227.0,
          1227.0,
          1224.0,
          1224.0,
          1223.0,
          1223.0,
          1223.0,
          1222.0,
          1219.0,
          1218.0,
          1219.0,
          1219.0,
          1222.0,
          1222.0,
          1223.0,
          1222.0,
          1221.0,
          1218.0,
          1219.0,
          1221.0,
          1227.0,
          1228.0,
          1229.0
        ],
        "WindowWidth": [
          2923.0,
          2917.0,
          2925.0,
          2930.0,
          2934.0,
          2932.0,
          2929.0,
          2935.0,
          2943.0,
          2946.0,
          2943.0,
          2937.0,
          2928.0,
          2921.0,
          2922.0,
          2923.0,
          2923.0,
          2921.0,
          2920.0,
          2917.0,
          2915.0,
          2920.0,
          2923.0,
          2926.0,
          2924.0,
          2922.0,
          2920.0,
          2922.0,
          2925.0,
          2927.0,
          2928.0,
          2929.0,
          2931.0,
          2930.0,
          2930.0,
          2926.0,
          2922.0,
          2922.0,
          2928.0,
          2933.0,
          2930.0,
          2925.0,
          2924.0,
          2929.0,
          2932.0,
          2928.0,
          2919.0,
          2916.0,
          2929.0,
          2934.0,
          2930.0,
          2922.0,
          2923.0,
          2937.0,
          2938.0,
          2931.0,
          2926.0,
          2924.0,
          2925.0,
          2928.0,
          2928.0,
          2927.0,
          2923.0,
          2925.0,
          2934.0,
          2933.0,
          2925.0,
          2924.0,
          2928.0,
          2932.0,
          2930.0,
          2929.0,
          2924.0,
          2923.0,
          2922.0,
          2920.0,
          2921.0,
          2927.0,
          2928.0,
          2927.0,
          2928.0,
          2929.0,
          2930.0,
