{
  "aor": 0.002862378048780488,
  "aqi": 0.005945983902439024,
  "bids_meta": {
    "AcquisitionMatrixPE": 96,
    "AcquisitionNumber": 1,
    "AcquisitionTime": "18:00:11.382500",
    "BandwidthPerPixelPhaseEncode": 52.083,
    "BaseResolution": 96,
    "BodyPartExamined": "HEAD",
    "ConversionSoftware": "dcm2niix",
    "ConversionSoftwareVersion": "v1.0.20180622 GCC6.3.0",
    "DerivedVendorReportedEchoSpacing": 0.000600004,
    "DeviceSerialNumber": "18926",
    "DwellTime": 2.6e-06,
    "EchoTime": 0.025,
    "EffectiveEchoSpacing": 0.000200001,
    "FlipAngle": 50,
    "ImageOrientationPatientDICOM": [
      0.999992,
      0.00075477,
      0.00403413,
      1.95081e-10,
      0.982944,
      -0.183905
    ],
    "ImageType": [
      "ORIGINAL",
      "PRIMARY",
      "M",
      "ND",
      "ECHO",
      "00",
      "MOSAIC"
    ],
    "InPlanePhaseEncodingDirectionDICOM": "ROW",
    "InstitutionName": "NIMH",
    "InstitutionalDepartmentName": "Department",
    "MRAcquisitionType": "2D",
    "MagneticFieldStrength": 6.98,
    "Manufacturer": "Siemens",
    "ManufacturersModelName": "Investigational_Device_7T",
    "Modality": "MR",
    "ParallelReductionFactorInPlane": 3,
    "PartialFourier": 1,
    "PatientPosition": "HFS",
    "PercentPhaseFOV": 100,
    "PhaseEncodingDirection": "i",
    "PhaseEncodingSteps": 94,
    "PhaseResolution": 1,
    "PixelBandwidth": 2003,
    "ProcedureStepDescription": "MRI_Procedure_Limited",
    "ProtocolName": "NIH_EPI_2.0iso_TR2_Run05",
    "PulseSequenceDetails": "%CustomerSeq%_inati_nih_epi",
    "ReceiveCoilName": "32Ch_Head_7T",
    "ReconMatrixPE": 96,
    "RepetitionTime": 2,
    "SAR": 0.0759193,
    "ScanningSequence": "EP",
    "SequenceName": "epfid2d1_96",
    "SequenceVariant": "SK",
    "SeriesDescription": "NIH_EPI_2.0iso_TR2_Run05",
    "SeriesNumber": 9,
    "ShimSetting": [
      -81,
      225,
      813,
      914,
      -204,
      728,
      -152,
      -457
    ],
    "SliceThickness": 2,
    "SliceTiming": [
      1.0025,
      0,
      1.04,
      0.0375,
      1.0775,
      0.075,
      1.115,
      0.11,
      1.1525,
      0.1475,
      1.19,
      0.185,
      1.2275,
      0.2225,
      1.2625,
      0.26,
      1.3,
      0.2975,
      1.3375,
      0.335,
      1.375,
      0.37,
      1.4125,
      0.4075,
      1.45,
      0.445,
      1.4875,
      0.4825,
      1.5225,
      0.52,
      1.56,
      0.5575,
      1.5975,
      0.595,
      1.635,
      0.6325,
      1.6725,
      0.6675,
      1.71,
      0.705,
      1.7475,
      0.7425,
      1.785,
      0.78,
      1.82,
      0.8175,
      1.8575,
      0.855,
      1.895,
      0.8925,
      1.9325,
      0.93,
      1.97,
      0.965
    ],
    "SoftwareVersions": "syngo_MR_B17",
    "SpacingBetweenSlices": 2,
    "StationName": "FMRIFD7T",
    "TaskName": "HalfFovNoTask",
    "TotalReadoutTime": 0.0190001,
    "TxRefAmp": 318,
    "dataset": "ds001555",
    "dcmmeta_affine": [
      [
        -1.9999831914901733,
        3.901620138080375e-10,
        0.008208253420889378,
        95.76705169677734
      ],
      [
        -0.001509539200924337,
        1.9658880233764648,
        -0.3678070902824402,
        -55.60440444946289
      ],
      [
        0.00806825328618288,
        0.3678101897239685,
        1.9658714532852173,
        -48.712867736816406
      ],
      [
        0.0,
        0.0,
        0.0,
        1.0
      ]
    ],
    "dcmmeta_reorient_transform": [
      [
        0.0,
        -1.0,
        0.0,
        95.0
      ],
      [
        1.0,
        0.0,
        0.0,
        0.0
      ],
      [
        0.0,
        0.0,
        1.0,
        0.0
      ],
      [
        0.0,
        0.0,
        0.0,
        1.0
      ]
    ],
    "dcmmeta_shape": [
      96,
      96,
      54,
      164
    ],
    "dcmmeta_slice_dim": 2,
    "dcmmeta_version": 0.6,
    "global": {
      "const": {
        "AcquisitionMatrix": [
          0,
          96,
          96,
          0
        ],
        "Allergies": "No Known Allergies",
        "AngioFlag": "N",
        "BitsAllocated": 16,
        "BitsStored": 12,
        "BodyPartExamined": "HEAD",
        "Columns": 768,
        "EchoNumbers": 1,
        "EchoTime": 25.0,
        "EchoTrainLength": 1,
        "FlipAngle": 50.0,
        "HighBit": 11,
        "ImageOrientationPatient": [
          0.99999157803709,
          0.00075476959348,
          0.00403412664115,
          1.95081e-10,
          0.98294400458809,
          -0.1839050946666
        ],
        "ImagePositionPatient": [
          -767.76139276313,
          -792.20053390714,
          107.10239025995
        ],
        "ImageType": [
          "ORIGINAL",
          "PRIMARY",
          "M",
          "ND",
          "ECHO_00",
          "MOSAIC"
        ],
        "ImagedNucleus": "1H",
        "ImagingFrequency": 297.205148,
        "InPlanePhaseEncodingDirection": "ROW",
        "LargestImagePixelValue": 4095,
        "MRAcquisitionType": "2D",
        "MagneticFieldStrength": 6.98,
        "Manufacturer": "SIEMENS",
        "ManufacturerModelName": "Investigational_Device_7T",
        "Modality": "MR",
        "NumberOfAverages": 1.0,
        "NumberOfPhaseEncodingSteps": 94,
        "PercentPhaseFieldOfView": 100.0,
        "PercentSampling": 100.0,
        "PerformedProcedureStepStartTime": "171202.224000",
        "PhotometricInterpretation": "MONOCHROME2",
        "PixelBandwidth": 2003.0,
        "PixelRepresentation": 0,
        "PixelSpacing": [
          2.0,
          2.0
        ],
        "PositionReferenceIndicator": "",
        "ProcedureCodeSequence": [
          {
            "CodeMeaning": "MRI Procedure Limited",
            "CodeValue": "MI01491",
            "CodingSchemeDesignator": "USA Standard",
            "ContextIdentifier": "4000100971"
          }
        ],
        "ProtocolName": "NIH_EPI_2.0iso_TR2_Run05",
        "ReferencedStudySequence": [
          {
            "ReferencedSOPClassUID": "1.2.840.10008.3.1.2.3.1",
            "ReferencedSOPInstanceUID": "1.2.840.113564.9.1.2723958737.61.2.5000066736"
          }
        ],
        "RepetitionTime": 2000.0,
        "RequestedProcedureCodeSequence": [
          {
            "CodeMeaning": "MRI Procedure Limited",
            "CodeValue": "MI01491",
            "CodingSchemeDesignator": "USA Standard",
            "ContextIdentifier": "4000100971"
          }
        ],
        "RequestingService": "MHMI",
        "Rows": 768,
        "SAR": 0.07591928494032,
        "SamplesPerPixel": 1,
        "ScanningSequence": "EP",
        "SequenceName": "epfid2d1_96",
        "SequenceVariant": "SK",
        "SeriesDescription": "NIH_EPI_2.0iso_TR2_Run05",
        "SeriesNumber": 9,
        "SliceLocation": -37.262731504108,
        "SliceThickness": 2.0,
        "SmallestImagePixelValue": 0,
        "SoftwareVersions": "syngo MR B17",
        "SpacingBetweenSlices": 1.9999999647591,
        "TransmitCoilName": "32Ch_Head_7T",
        "VariableFlipAngleFlag": "N",
        "WindowCenterWidthExplanation": "Algo1",
        "dBdt": 0.0
      },
      "slices": {}
    },
    "modality": "bold",
    "run_id": 6,
    "session_id": "05",
    "subject_id": "001",
    "task_id": "HalfFovNoTask",
    "time": {
      "samples": {
        "AcquisitionNumber": [
          1,
          2,
          3,
          4,
          5,
          6,
          7,
          8,
          9,
          10,
          11,
          12,
          13,
          14,
          15,
          16,
          17,
          18,
          19,
          20,
          21,
          22,
          23,
          24,
          25,
          26,
          27,
          28,
          29,
          30,
          31,
          32,
          33,
          34,
          35,
          36,
          37,
          38,
          39,
          40,
          41,
          42,
          43,
          44,
          45,
          46,
          47,
          48,
          49,
          50,
          51,
          52,
          53,
          54,
          55,
          56,
          57,
          58,
          59,
          60,
          61,
          62,
          63,
          64,
          65,
          66,
          67,
          68,
          69,
          70,
          71,
          72,
          73,
          74,
          75,
          76,
          77,
          78,
          79,
          80,
          81,
          82,
          83,
          84,
          85,
          86,
          87,
          88,
          89,
          90,
          91,
          92,
          93,
          94,
          95,
          96,
          97,
          98,
          99,
          100,
          101,
          102,
          103,
          104,
          105,
          106,
          107,
          108,
          109,
          110,
          111,
          112,
          113,
          114,
          115,
          116,
          117,
          118,
          119,
          120,
          121,
          122,
          123,
          124,
          125,
          126,
          127,
          128,
          129,
          130,
          131,
          132,
          133,
          134,
          135,
          136,
          137,
          138,
          139,
          140,
          141,
          142,
          143,
          144,
          145,
          146,
          147,
          148,
          149,
          150,
          151,
          152,
          153,
          154,
          155,
          156,
          157,
          158,
          159,
          160,
          161,
          162,
          163,
          164
        ],
        "AcquisitionTime": [
          "180011.382500",
          "180015.400000",
          "180017.407500",
          "180019.415000",
          "180021.422500",
          "180023.432500",
          "180025.440000",
          "180027.447500",
          "180029.455000",
          "180031.462500",
          "180033.472500",
          "180035.480000",
          "180037.487500",
          "180039.495000",
          "180041.502500",
          "180043.512500",
          "180045.520000",
          "180047.527500",
          "180049.535000",
          "180051.545000",
          "180053.552500",
          "180055.560000",
          "180057.567500",
          "180059.575000",
          "180101.585000",
          "180103.592500",
          "180105.600000",
          "180107.607500",
          "180109.615000",
          "180111.625000",
          "180113.632500",
          "180115.640000",
          "180117.647500",
          "180119.657500",
          "180121.665000",
          "180123.672500",
          "180125.680000",
          "180127.687500",
          "180129.697500",
          "180131.705000",
          "180133.712500",
          "180135.720000",
          "180137.727500",
          "180139.737500",
          "180141.745000",
          "180143.752500",
          "180145.760000",
          "180147.770000",
          "180149.777500",
          "180151.785000",
          "180153.792500",
          "180155.800000",
          "180157.810000",
          "180159.817500",
          "180201.825000",
          "180203.832500",
          "180205.840000",
          "180207.850000",
          "180209.857500",
          "180211.865000",
          "180213.872500",
          "180215.880000",
          "180217.890000",
          "180219.897500",
          "180221.905000",
          "180223.912500",
          "180225.922500",
          "180227.930000",
          "180229.937500",
          "180231.945000",
          "180233.952500",
          "180235.962500",
          "180237.970000",
          "180239.977500",
          "180241.985000",
          "180243.992500",
          "180246.002500",
          "180248.010000",
          "180250.017500",
          "180252.025000",
          "180254.035000",
          "180256.042500",
          "180258.050000",
          "180300.057500",
          "180302.065000",
          "180304.075000",
          "180306.082500",
          "180308.090000",
          "180310.097500",
          "180312.105000",
          "180314.115000",
          "180316.122500",
          "180318.130000",
          "180320.137500",
          "180322.147500",
          "180324.155000",
          "180326.162500",
          "180328.170000",
          "180330.177500",
          "180332.187500",
          "180334.195000",
          "180336.202500",
          "180338.210000",
          "180340.217500",
          "180342.227500",
          "180344.235000",
          "180346.242500",
          "180348.250000",
          "180350.257500",
          "180352.267500",
          "180354.275000",
          "180356.282500",
          "180358.290000",
          "180400.300000",
          "180402.307500",
          "180404.315000",
          "180406.322500",
          "180408.330000",
          "180410.340000",
          "180412.347500",
          "180414.355000",
          "180416.362500",
          "180418.370000",
          "180420.380000",
          "180422.387500",
          "180424.395000",
          "180426.402500",
          "180428.412500",
          "180430.420000",
          "180432.427500",
          "180434.435000",
          "180436.442500",
          "180438.452500",
          "180440.460000",
          "180442.467500",
          "180444.475000",
          "180446.482500",
          "180448.492500",
          "180450.500000",
          "180452.507500",
          "180454.515000",
          "180456.525000",
          "180458.532500",
          "180500.540000",
          "180502.547500",
          "180504.555000",
          "180506.565000",
          "180508.572500",
          "180510.580000",
          "180512.587500",
          "180514.595000",
          "180516.605000",
          "180518.612500",
          "180520.620000",
          "180522.627500",
          "180524.635000",
          "180526.645000",
          "180528.652500",
          "180530.660000",
          "180532.667500",
          "180534.677500",
          "180536.685000",
          "180538.692500",
          "180540.700000"
        ],
        "ContentTime": [
          "180112.630000",
          "180112.630000",
          "180112.630000",
          "180112.630000",
          "180112.630000",
          "180112.646000",
          "180112.646000",
          "180112.646000",
          "180112.646000",
          "180112.646000",
          "180112.646000",
          "180112.661000",
          "180112.661000",
          "180112.661000",
          "180112.661000",
          "180112.661000",
          "180112.677000",
          "180112.677000",
          "180112.677000",
          "180112.677000",
          "180112.677000",
          "180112.677000",
          "180112.677000",
          "180112.692000",
          "180112.692000",
          "180112.692000",
          "180112.692000",
          "180112.692000",
          "180112.692000",
          "180152.614000",
          "180152.614000",
          "180152.614000",
          "180152.630000",
          "180152.630000",
          "180152.630000",
          "180152.630000",
          "180152.630000",
          "180152.630000",
          "180152.646000",
          "180152.646000",
          "180152.646000",
          "180152.646000",
          "180152.646000",
          "180152.646000",
          "180152.646000",
          "180152.661000",
          "180152.661000",
          "180152.661000",
          "180152.661000",
          "180232.614000",
          "180232.614000",
          "180232.630000",
          "180232.630000",
          "180232.630000",
          "180232.630000",
          "180232.646000",
          "180232.646000",
          "180232.646000",
          "180232.646000",
          "180232.646000",
          "180232.661000",
          "180232.661000",
          "180232.661000",
          "180232.661000",
          "180232.661000",
          "180232.661000",
          "180232.677000",
          "180232.677000",
          "180232.677000",
          "180312.614000",
          "180312.614000",
          "180312.614000",
          "180312.614000",
          "180312.614000",
          "180312.630000",
          "180312.630000",
          "180312.630000",
          "180312.630000",
          "180312.630000",
          "180312.630000",
          "180312.646000",
          "180312.646000",
          "180312.646000",
          "180312.646000",
          "180312.646000",
          "180312.646000",
          "180312.646000",
          "180312.661000",
          "180312.661000",
          "180352.614000",
          "180352.614000",
          "180352.614000",
          "180352.614000",
          "180352.614000",
          "180352.630000",
          "180352.630000",
          "180352.630000",
          "180352.630000",
          "180352.630000",
          "180352.646000",
          "180352.646000",
          "180352.646000",
          "180352.646000",
          "180352.646000",
          "180352.646000",
          "180352.646000",
          "180352.661000",
          "180352.661000",
          "180352.661000",
          "180432.614000",
          "180432.614000",
          "180432.614000",
          "180432.614000",
          "180432.614000",
          "180432.630000",
          "180432.630000",
          "180432.630000",
          "180432.630000",
          "180432.630000",
          "180432.630000",
          "180432.646000",
          "180432.646000",
          "180432.646000",
          "180432.646000",
          "180432.646000",
          "180432.646000",
          "180432.661000",
          "180432.661000",
          "180432.661000",
          "180512.614000",
          "180512.614000",
          "180512.614000",
          "180512.614000",
          "180512.614000",
          "180512.630000",
          "180512.630000",
          "180512.630000",
          "180512.630000",
          "180512.630000",
          "180512.630000",
          "180512.646000",
          "180512.646000",
          "180512.646000",
          "180512.646000",
          "180512.646000",
          "180512.661000",
          "180512.661000",
          "180512.661000",
          "180512.661000",
          "180541.239000",
          "180541.239000",
          "180541.239000",
          "180541.239000",
          "180541.255000",
          "180541.255000",
          "180541.255000",
          "180541.255000",
          "180541.255000",
          "180541.255000",
          "180541.255000",
          "180541.271000",
          "180541.271000",
          "180541.271000",
          "180541.286000"
        ],
        "InstanceCreationTime": [
          "180112.630000",
          "180112.630000",
          "180112.630000",
          "180112.630000",
          "180112.630000",
          "180112.646000",
          "180112.646000",
          "180112.646000",
          "180112.646000",
          "180112.646000",
          "180112.646000",
          "180112.661000",
          "180112.661000",
          "180112.661000",
          "180112.661000",
          "180112.661000",
          "180112.677000",
          "180112.677000",
          "180112.677000",
          "180112.677000",
          "180112.677000",
          "180112.677000",
          "180112.677000",
          "180112.692000",
          "180112.692000",
          "180112.692000",
          "180112.692000",
          "180112.692000",
          "180112.692000",
          "180152.614000",
          "180152.614000",
          "180152.614000",
          "180152.630000",
          "180152.630000",
          "180152.630000",
          "180152.630000",
          "180152.630000",
          "180152.630000",
          "180152.646000",
          "180152.646000",
          "180152.646000",
          "180152.646000",
          "180152.646000",
          "180152.646000",
          "180152.646000",
          "180152.661000",
          "180152.661000",
          "180152.661000",
          "180152.661000",
          "180232.614000",
          "180232.614000",
          "180232.630000",
          "180232.630000",
          "180232.630000",
          "180232.630000",
          "180232.646000",
          "180232.646000",
          "180232.646000",
          "180232.646000",
          "180232.646000",
          "180232.661000",
          "180232.661000",
          "180232.661000",
          "180232.661000",
          "180232.661000",
          "180232.661000",
          "180232.677000",
          "180232.677000",
          "180232.677000",
          "180312.614000",
          "180312.614000",
          "180312.614000",
          "180312.614000",
          "180312.614000",
          "180312.630000",
          "180312.630000",
          "180312.630000",
          "180312.630000",
          "180312.630000",
          "180312.630000",
          "180312.646000",
          "180312.646000",
          "180312.646000",
          "180312.646000",
          "180312.646000",
          "180312.646000",
          "180312.646000",
          "180312.661000",
          "180312.661000",
          "180352.614000",
          "180352.614000",
          "180352.614000",
          "180352.614000",
          "180352.614000",
          "180352.630000",
          "180352.630000",
          "180352.630000",
          "180352.630000",
          "180352.630000",
          "180352.646000",
          "180352.646000",
          "180352.646000",
          "180352.646000",
          "180352.646000",
          "180352.646000",
          "180352.646000",
          "180352.661000",
          "180352.661000",
          "180352.661000",
          "180432.614000",
          "180432.614000",
          "180432.614000",
          "180432.614000",
          "180432.614000",
          "180432.630000",
          "180432.630000",
          "180432.630000",
          "180432.630000",
          "180432.630000",
          "180432.630000",
          "180432.646000",
          "180432.646000",
          "180432.646000",
          "180432.646000",
          "180432.646000",
          "180432.646000",
          "180432.661000",
          "180432.661000",
          "180432.661000",
          "180512.614000",
          "180512.614000",
          "180512.614000",
          "180512.614000",
          "180512.614000",
          "180512.630000",
          "180512.630000",
          "180512.630000",
          "180512.630000",
          "180512.630000",
          "180512.630000",
          "180512.646000",
          "180512.646000",
          "180512.646000",
          "180512.646000",
          "180512.646000",
          "180512.661000",
          "180512.661000",
          "180512.661000",
          "180512.661000",
          "180541.239000",
          "180541.239000",
          "180541.239000",
          "180541.239000",
          "180541.255000",
          "180541.255000",
          "180541.255000",
          "180541.255000",
          "180541.255000",
          "180541.255000",
          "180541.255000",
          "180541.271000",
          "180541.271000",
          "180541.271000",
          "180541.286000"
        ],
        "InstanceNumber": [
          1,
          2,
          3,
          4,
          5,
          6,
          7,
          8,
          9,
          10,
          11,
          12,
          13,
          14,
          15,
          16,
          17,
          18,
          19,
          20,
          21,
          22,
          23,
          24,
          25,
          26,
          27,
          28,
          29,
          30,
          31,
          32,
          33,
          34,
          35,
          36,
          37,
          38,
          39,
          40,
          41,
          42,
          43,
          44,
          45,
          46,
          47,
          48,
          49,
          50,
          51,
          52,
          53,
          54,
          55,
          56,
          57,
          58,
          59,
          60,
          61,
          62,
          63,
          64,
          65,
          66,
          67,
          68,
          69,
          70,
          71,
          72,
          73,
          74,
          75,
          76,
          77,
          78,
          79,
          80,
          81,
          82,
          83,
          84,
          85,
          86,
          87,
          88,
          89,
          90,
          91,
          92,
          93,
          94,
          95,
          96,
          97,
          98,
          99,
          100,
          101,
          102,
          103,
          104,
          105,
          106,
          107,
          108,
          109,
          110,
          111,
          112,
          113,
          114,
          115,
          116,
          117,
          118,
          119,
          120,
          121,
          122,
          123,
          124,
          125,
          126,
          127,
          128,
          129,
          130,
          131,
          132,
          133,
          134,
          135,
          136,
          137,
          138,
          139,
          140,
          141,
          142,
          143,
          144,
          145,
          146,
          147,
          148,
          149,
          150,
          151,
          152,
          153,
          154,
          155,
          156,
          157,
          158,
          159,
          160,
          161,
          162,
          163,
          164
        ],
        "WindowCenter": [
          1224.0,
          1223.0,
          1222.0,
          1220.0,
          1219.0,
          1222.0,
          1224.0,
          1225.0,
          1223.0,
          1222.0,
          1222.0,
          1222.0,
          1222.0,
          1221.0,
          1221.0,
          1223.0,
          1220.0,
          1223.0,
          1223.0,
          1222.0,
          1221.0,
          1217.0,
          1211.0,
          1210.0,
          1214.0,
          1220.0,
          1222.0,
          1221.0,
          1221.0,
          1221.0,
          1221.0,
          1222.0,
          1223.0,
          1225.0,
          1227.0,
          1227.0,
          1227.0,
          1226.0,
          1226.0,
          1226.0,
          1224.0,
          1224.0,
          1224.0,
          1224.0,
          1223.0,
          1224.0,
          1223.0,
          1222.0,
          1224.0,
          1226.0,
          1223.0,
          1223.0,
          1221.0,
          1222.0,
          1222.0,
          1222.0,
          1220.0,
          1218.0,
          1219.0,
          1222.0,
          1222.0,
          1223.0,
          1222.0,
          1219.0,
          1219.0,
          1219.0,
          1219.0,
          1220.0,
          1220.0,
          1220.0,
          1220.0,
          1222.0,
          1226.0,
          1228.0,
          1227.0,
          1224.0,
          1224.0,
          1227.0,
          1225.0,
          1223.0,
          1220.0,
          1219.0,
          1219.0,
          1218.0,
          1219.0,
          1221.0,
          1220.0,
          1218.0,
          1219.0,
          1220.0,
          1226.0,
          1228.0,
          1225.0,
          1225.0,
          1224.0,
          1228.0,
          1230.0,
          1227.0,
          1223.0,
          1222.0,
          1221.0,
          1223.0,
          1221.0,
          1219.0,
          1217.0,
          1220.0,
          1221.0,
          1223.0,
          1225.0,
          1225.0,
          1224.0,
          1222.0,
          1223.0,
          1227.0,
          1226.0,
          1224.0,
          1221.0,
          1221.0,
          1224.0,
          1224.0,
          1222.0,
          1222.0,
          1221.0,
          1223.0,
          1224.0,
          1223.0,
          1224.0,
          1224.0,
          1227.0,
          1230.0,
          1227.0,
          1222.0,
          1222.0,
          1223.0,
          1224.0,
          1221.0,
          1220.0,
          1219.0,
          1219.0,
          1220.0,
          1220.0,
          1220.0,
          1223.0,
          1224.0,
          1224.0,
          1223.0,
          1223.0,
          1223.0,
          1224.0,
          1226.0,
          1226.0,
          1225.0,
          1226.0,
          1225.0,
          1223.0,
          1222.0,
          1222.0,
          1223.0,
          1224.0,
          1225.0,
          1224.0,
          1221.0,
          1221.0,
          1221.0
        ],
        "WindowWidth": [
          2924.0,
          2923.0,
          2921.0,
          2916.0,
          2914.0,
          2919.0,
          2927.0,
          2926.0,
          2924.0,
          2921.0,
          2922.0,
          2921.0,
          2921.0,
          2919.0,
          2920.0,
          2921.0,
          2921.0,
          2929.0,
          2929.0,
          2927.0,
          2921.0,
          2905.0,
          2890.0,
          2890.0,
          2905.0,
          2918.0,
          2919.0,
          2918.0,
          2919.0,
          2922.0,
          2922.0,
          2926.0,
          2928.0,
          2933.0,
          2939.0,
          2934.0,
          2935.0,
          2935.0,
          2935.0,
          2934.0,
          2931.0,
          2929.0,
          2927.0,
          2927.0,
          2924.0,
          2925.0,
          2926.0,
          2923.0,
          2927.0,
          2930.0,
          2926.0,
          2922.0,
          2922.0,
          2922.0,
          2924.0,
          2921.0,
          2917.0,
          2914.0,
          2916.0,
          2921.0,
          2923.0,
          2924.0,
          2923.0,
          2918.0,
          2917.0,
          2913.0,
          2915.0,
          2917.0,
          2918.0,
          2916.0,
          2916.0,
          2923.0,
          2934.0,
          2936.0,
          2930.0,
          2924.0,
          2929.0,
          2934.0,
          2929.0,
          2922.0,
          2918.0,
          2912.0,
          2911.0,
