{
  "aor": 0.006809268292682928,
  "aqi": 0.006657020609756097,
  "bids_meta": {
    "AcquisitionMatrixPE": 96,
    "AcquisitionNumber": 1,
    "AcquisitionTime": "17:39:52.542500",
    "BandwidthPerPixelPhaseEncode": 52.083,
    "BaseResolution": 96,
    "BodyPartExamined": "HEAD",
    "ConversionSoftware": "dcm2niix",
    "ConversionSoftwareVersion": "v1.0.20180622 GCC6.3.0",
    "DerivedVendorReportedEchoSpacing": 0.000600004,
    "DeviceSerialNumber": "18926",
    "DwellTime": 2.6e-06,
    "EchoTime": 0.025,
    "EffectiveEchoSpacing": 0.000200001,
    "FlipAngle": 50,
    "ImageOrientationPatientDICOM": [
      0.999992,
      0.00075477,
      0.00403413,
      1.95081e-10,
      0.982944,
      -0.183905
    ],
    "ImageType": [
      "ORIGINAL",
      "PRIMARY",
      "M",
      "ND",
      "ECHO",
      "00",
      "MOSAIC"
    ],
    "InPlanePhaseEncodingDirectionDICOM": "ROW",
    "InstitutionName": "NIMH",
    "InstitutionalDepartmentName": "Department",
    "MRAcquisitionType": "2D",
    "MagneticFieldStrength": 6.98,
    "Manufacturer": "Siemens",
    "ManufacturersModelName": "Investigational_Device_7T",
    "Modality": "MR",
    "ParallelReductionFactorInPlane": 3,
    "PartialFourier": 1,
    "PatientPosition": "HFS",
    "PercentPhaseFOV": 100,
    "PhaseEncodingDirection": "i",
    "PhaseEncodingSteps": 94,
    "PhaseResolution": 1,
    "PixelBandwidth": 2003,
    "ProcedureStepDescription": "MRI_Procedure_Limited",
    "ProtocolName": "NIH_EPI_2.0iso_TR2_Run02",
    "PulseSequenceDetails": "%CustomerSeq%_inati_nih_epi",
    "ReceiveCoilName": "32Ch_Head_7T",
    "ReconMatrixPE": 96,
    "RepetitionTime": 2,
    "SAR": 0.0759193,
    "ScanningSequence": "EP",
    "SequenceName": "epfid2d1_96",
    "SequenceVariant": "SK",
    "SeriesDescription": "NIH_EPI_2.0iso_TR2_Run02",
    "SeriesNumber": 6,
    "ShimSetting": [
      -81,
      225,
      813,
      914,
      -204,
      728,
      -152,
      -457
    ],
    "SliceThickness": 2,
    "SliceTiming": [
      1.005,
      0,
      1.0425,
      0.0375,
      1.0775,
      0.075,
      1.115,
      0.1125,
      1.1525,
      0.15,
      1.19,
      0.1875,
      1.2275,
      0.2225,
      1.265,
      0.26,
      1.3025,
      0.2975,
      1.34,
      0.335,
      1.375,
      0.3725,
      1.4125,
      0.41,
      1.45,
      0.4475,
      1.4875,
      0.485,
      1.525,
      0.52,
      1.5625,
      0.5575,
      1.6,
      0.595,
      1.6375,
      0.6325,
      1.6725,
      0.67,
      1.71,
      0.7075,
      1.7475,
      0.745,
      1.785,
      0.78,
      1.8225,
      0.8175,
      1.86,
      0.855,
      1.8975,
      0.8925,
      1.935,
      0.93,
      1.97,
      0.9675
    ],
    "SoftwareVersions": "syngo_MR_B17",
    "SpacingBetweenSlices": 2,
    "StationName": "FMRIFD7T",
    "TaskName": "HalfFovNoTask",
    "TotalReadoutTime": 0.0190001,
    "TxRefAmp": 318,
    "dataset": "ds001555",
    "dcmmeta_affine": [
      [
        -1.9999831914901733,
        3.901620138080375e-10,
        0.008208253420889378,
        95.76705169677734
      ],
      [
        -0.001509539200924337,
        1.9658880233764648,
        -0.3678070902824402,
        -55.60440444946289
      ],
      [
        0.00806825328618288,
        0.3678101897239685,
        1.9658714532852173,
        -48.712867736816406
      ],
      [
        0.0,
        0.0,
        0.0,
        1.0
      ]
    ],
    "dcmmeta_reorient_transform": [
      [
        0.0,
        -1.0,
        0.0,
        95.0
      ],
      [
        1.0,
        0.0,
        0.0,
        0.0
      ],
      [
        0.0,
        0.0,
        1.0,
        0.0
      ],
      [
        0.0,
        0.0,
        0.0,
        1.0
      ]
    ],
    "dcmmeta_shape": [
      96,
      96,
      54,
      164
    ],
    "dcmmeta_slice_dim": 2,
    "dcmmeta_version": 0.6,
    "global": {
      "const": {
        "AcquisitionMatrix": [
          0,
          96,
          96,
          0
        ],
        "Allergies": "No Known Allergies",
        "AngioFlag": "N",
        "BitsAllocated": 16,
        "BitsStored": 12,
        "BodyPartExamined": "HEAD",
        "Columns": 768,
        "EchoNumbers": 1,
        "EchoTime": 25.0,
        "EchoTrainLength": 1,
        "FlipAngle": 50.0,
        "HighBit": 11,
        "ImageOrientationPatient": [
          0.99999157803709,
          0.00075476959348,
          0.00403412664115,
          1.95081e-10,
          0.98294400458809,
          -0.1839050946666
        ],
        "ImagePositionPatient": [
          -767.76139276313,
          -792.20053390714,
          107.10239025995
        ],
        "ImageType": [
          "ORIGINAL",
          "PRIMARY",
          "M",
          "ND",
          "ECHO_00",
          "MOSAIC"
        ],
        "ImagedNucleus": "1H",
        "ImagingFrequency": 297.205081,
        "InPlanePhaseEncodingDirection": "ROW",
        "LargestImagePixelValue": 4095,
        "MRAcquisitionType": "2D",
        "MagneticFieldStrength": 6.98,
        "Manufacturer": "SIEMENS",
        "ManufacturerModelName": "Investigational_Device_7T",
        "Modality": "MR",
        "NumberOfAverages": 1.0,
        "NumberOfPhaseEncodingSteps": 94,
        "PercentPhaseFieldOfView": 100.0,
        "PercentSampling": 100.0,
        "PerformedProcedureStepStartTime": "171202.224000",
        "PhotometricInterpretation": "MONOCHROME2",
        "PixelBandwidth": 2003.0,
        "PixelRepresentation": 0,
        "PixelSpacing": [
          2.0,
          2.0
        ],
        "PositionReferenceIndicator": "",
        "ProcedureCodeSequence": [
          {
            "CodeMeaning": "MRI Procedure Limited",
            "CodeValue": "MI01491",
            "CodingSchemeDesignator": "USA Standard",
            "ContextIdentifier": "4000100971"
          }
        ],
        "ProtocolName": "NIH_EPI_2.0iso_TR2_Run02",
        "ReferencedStudySequence": [
          {
            "ReferencedSOPClassUID": "1.2.840.10008.3.1.2.3.1",
            "ReferencedSOPInstanceUID": "1.2.840.113564.9.1.2723958737.61.2.5000066736"
          }
        ],
        "RepetitionTime": 2000.0,
        "RequestedProcedureCodeSequence": [
          {
            "CodeMeaning": "MRI Procedure Limited",
            "CodeValue": "MI01491",
            "CodingSchemeDesignator": "USA Standard",
            "ContextIdentifier": "4000100971"
          }
        ],
        "RequestingService": "MHMI",
        "Rows": 768,
        "SAR": 0.07591928494032,
        "SamplesPerPixel": 1,
        "ScanningSequence": "EP",
        "SequenceName": "epfid2d1_96",
        "SequenceVariant": "SK",
        "SeriesDescription": "NIH_EPI_2.0iso_TR2_Run02",
        "SeriesNumber": 6,
        "SliceLocation": -37.262731504108,
        "SliceThickness": 2.0,
        "SmallestImagePixelValue": 0,
        "SoftwareVersions": "syngo MR B17",
        "SpacingBetweenSlices": 1.9999999647591,
        "TransmitCoilName": "32Ch_Head_7T",
        "VariableFlipAngleFlag": "N",
        "WindowCenterWidthExplanation": "Algo1",
        "dBdt": 0.0
      },
      "slices": {}
    },
    "modality": "bold",
    "run_id": 3,
    "session_id": "05",
    "subject_id": "001",
    "task_id": "HalfFovNoTask",
    "time": {
      "samples": {
        "AcquisitionNumber": [
          1,
          2,
          3,
          4,
          5,
          6,
          7,
          8,
          9,
          10,
          11,
          12,
          13,
          14,
          15,
          16,
          17,
          18,
          19,
          20,
          21,
          22,
          23,
          24,
          25,
          26,
          27,
          28,
          29,
          30,
          31,
          32,
          33,
          34,
          35,
          36,
          37,
          38,
          39,
          40,
          41,
          42,
          43,
          44,
          45,
          46,
          47,
          48,
          49,
          50,
          51,
          52,
          53,
          54,
          55,
          56,
          57,
          58,
          59,
          60,
          61,
          62,
          63,
          64,
          65,
          66,
          67,
          68,
          69,
          70,
          71,
          72,
          73,
          74,
          75,
          76,
          77,
          78,
          79,
          80,
          81,
          82,
          83,
          84,
          85,
          86,
          87,
          88,
          89,
          90,
          91,
          92,
          93,
          94,
          95,
          96,
          97,
          98,
          99,
          100,
          101,
          102,
          103,
          104,
          105,
          106,
          107,
          108,
          109,
          110,
          111,
          112,
          113,
          114,
          115,
          116,
          117,
          118,
          119,
          120,
          121,
          122,
          123,
          124,
          125,
          126,
          127,
          128,
          129,
          130,
          131,
          132,
          133,
          134,
          135,
          136,
          137,
          138,
          139,
          140,
          141,
          142,
          143,
          144,
          145,
          146,
          147,
          148,
          149,
          150,
          151,
          152,
          153,
          154,
          155,
          156,
          157,
          158,
          159,
          160,
          161,
          162,
          163,
          164
        ],
        "AcquisitionTime": [
          "173952.542500",
          "173956.557500",
          "173958.565000",
          "174000.575000",
          "174002.582500",
          "174004.590000",
          "174006.597500",
          "174008.605000",
          "174010.615000",
          "174012.622500",
          "174014.630000",
          "174016.637500",
          "174018.645000",
          "174020.655000",
          "174022.662500",
          "174024.670000",
          "174026.677500",
          "174028.687500",
          "174030.695000",
          "174032.702500",
          "174034.710000",
          "174036.717500",
          "174038.727500",
          "174040.735000",
          "174042.742500",
          "174044.750000",
          "174046.757500",
          "174048.767500",
          "174050.775000",
          "174052.782500",
          "174054.790000",
          "174056.800000",
          "174058.807500",
          "174100.815000",
          "174102.822500",
          "174104.830000",
          "174106.840000",
          "174108.847500",
          "174110.855000",
          "174112.862500",
          "174114.870000",
          "174116.880000",
          "174118.887500",
          "174120.895000",
          "174122.902500",
          "174124.912500",
          "174126.920000",
          "174128.927500",
          "174130.935000",
          "174132.942500",
          "174134.952500",
          "174136.960000",
          "174138.967500",
          "174140.975000",
          "174142.982500",
          "174144.992500",
          "174147.000000",
          "174149.007500",
          "174151.015000",
          "174153.022500",
          "174155.032500",
          "174157.040000",
          "174159.047500",
          "174201.055000",
          "174203.065000",
          "174205.072500",
          "174207.080000",
          "174209.087500",
          "174211.095000",
          "174213.105000",
          "174215.112500",
          "174217.120000",
          "174219.127500",
          "174221.135000",
          "174223.145000",
          "174225.152500",
          "174227.160000",
          "174229.167500",
          "174231.177500",
          "174233.185000",
          "174235.192500",
          "174237.200000",
          "174239.207500",
          "174241.217500",
          "174243.225000",
          "174245.232500",
          "174247.240000",
          "174249.247500",
          "174251.257500",
          "174253.265000",
          "174255.272500",
          "174257.280000",
          "174259.290000",
          "174301.297500",
          "174303.305000",
          "174305.312500",
          "174307.320000",
          "174309.330000",
          "174311.337500",
          "174313.345000",
          "174315.352500",
          "174317.360000",
          "174319.370000",
          "174321.377500",
          "174323.385000",
          "174325.392500",
          "174327.402500",
          "174329.410000",
          "174331.417500",
          "174333.425000",
          "174335.432500",
          "174337.442500",
          "174339.450000",
          "174341.457500",
          "174343.465000",
          "174345.472500",
          "174347.482500",
          "174349.490000",
          "174351.497500",
          "174353.505000",
          "174355.512500",
          "174357.522500",
          "174359.530000",
          "174401.537500",
          "174403.545000",
          "174405.555000",
          "174407.562500",
          "174409.570000",
          "174411.577500",
          "174413.585000",
          "174415.595000",
          "174417.602500",
          "174419.610000",
          "174421.617500",
          "174423.625000",
          "174425.635000",
          "174427.642500",
          "174429.650000",
          "174431.657500",
          "174433.667500",
          "174435.675000",
          "174437.682500",
          "174439.690000",
          "174441.697500",
          "174443.707500",
          "174445.715000",
          "174447.722500",
          "174449.730000",
          "174451.737500",
          "174453.747500",
          "174455.755000",
          "174457.762500",
          "174459.770000",
          "174501.780000",
          "174503.787500",
          "174505.795000",
          "174507.802500",
          "174509.810000",
          "174511.820000",
          "174513.827500",
          "174515.835000",
          "174517.842500",
          "174519.850000",
          "174521.860000"
        ],
        "ContentTime": [
          "174052.630000",
          "174052.630000",
          "174052.630000",
          "174052.646000",
          "174052.646000",
          "174052.646000",
          "174052.646000",
          "174052.646000",
          "174052.646000",
          "174052.646000",
          "174052.661000",
          "174052.661000",
          "174052.661000",
          "174052.661000",
          "174052.661000",
          "174052.677000",
          "174052.677000",
          "174052.677000",
          "174052.677000",
          "174052.692000",
          "174052.692000",
          "174052.692000",
          "174052.692000",
          "174052.692000",
          "174052.692000",
          "174052.692000",
          "174052.708000",
          "174052.708000",
          "174132.614000",
          "174132.630000",
          "174132.630000",
          "174132.630000",
          "174132.630000",
          "174132.630000",
          "174132.630000",
          "174132.630000",
          "174132.646000",
          "174132.646000",
          "174132.646000",
          "174132.646000",
          "174132.646000",
          "174132.661000",
          "174132.661000",
          "174132.661000",
          "174132.661000",
          "174132.661000",
          "174132.661000",
          "174132.677000",
          "174212.614000",
          "174212.630000",
          "174212.630000",
          "174212.630000",
          "174212.630000",
          "174212.630000",
          "174212.646000",
          "174212.646000",
          "174212.646000",
          "174212.646000",
          "174212.646000",
          "174212.661000",
          "174212.661000",
          "174212.661000",
          "174212.661000",
          "174212.661000",
          "174212.661000",
          "174212.677000",
          "174212.677000",
          "174212.677000",
          "174252.614000",
          "174252.630000",
          "174252.630000",
          "174252.630000",
          "174252.630000",
          "174252.630000",
          "174252.630000",
          "174252.630000",
          "174252.646000",
          "174252.646000",
          "174252.661000",
          "174252.661000",
          "174252.661000",
          "174252.677000",
          "174252.677000",
          "174252.677000",
          "174252.677000",
          "174252.677000",
          "174252.677000",
          "174252.692000",
          "174312.614000",
          "174312.630000",
          "174312.630000",
          "174312.630000",
          "174312.630000",
          "174312.646000",
          "174312.646000",
          "174312.646000",
          "174312.646000",
          "174312.646000",
          "174352.614000",
          "174352.614000",
          "174352.614000",
          "174352.630000",
          "174352.630000",
          "174352.630000",
          "174352.630000",
          "174352.646000",
          "174352.646000",
          "174352.646000",
          "174352.646000",
          "174352.646000",
          "174352.646000",
          "174352.661000",
          "174352.661000",
          "174352.661000",
          "174352.661000",
          "174352.661000",
          "174352.661000",
          "174352.661000",
          "174432.614000",
          "174432.614000",
          "174432.630000",
          "174432.630000",
          "174432.630000",
          "174432.630000",
          "174432.646000",
          "174432.646000",
          "174432.646000",
          "174432.646000",
          "174432.646000",
          "174432.646000",
          "174432.661000",
          "174432.661000",
          "174432.661000",
          "174432.661000",
          "174432.661000",
          "174432.677000",
          "174432.677000",
          "174432.677000",
          "174512.614000",
          "174512.614000",
          "174512.630000",
          "174512.630000",
          "174512.630000",
          "174512.630000",
          "174512.630000",
          "174512.630000",
          "174512.646000",
          "174512.646000",
          "174512.646000",
          "174512.646000",
          "174512.646000",
          "174512.646000",
          "174512.646000",
          "174512.661000",
          "174512.661000",
          "174512.661000",
          "174512.661000",
          "174512.677000",
          "174522.739000",
          "174522.739000",
          "174522.739000",
          "174522.755000",
          "174522.755000",
          "174522.755000"
        ],
        "InstanceCreationTime": [
          "174052.630000",
          "174052.630000",
          "174052.630000",
          "174052.646000",
          "174052.646000",
          "174052.646000",
          "174052.646000",
          "174052.646000",
          "174052.646000",
          "174052.646000",
          "174052.661000",
          "174052.661000",
          "174052.661000",
          "174052.661000",
          "174052.661000",
          "174052.677000",
          "174052.677000",
          "174052.677000",
          "174052.677000",
          "174052.692000",
          "174052.692000",
          "174052.692000",
          "174052.692000",
          "174052.692000",
          "174052.692000",
          "174052.692000",
          "174052.708000",
          "174052.708000",
          "174132.614000",
          "174132.630000",
          "174132.630000",
          "174132.630000",
          "174132.630000",
          "174132.630000",
          "174132.630000",
          "174132.630000",
          "174132.646000",
          "174132.646000",
          "174132.646000",
          "174132.646000",
          "174132.646000",
          "174132.661000",
          "174132.661000",
          "174132.661000",
          "174132.661000",
          "174132.661000",
          "174132.661000",
          "174132.677000",
          "174212.614000",
          "174212.630000",
          "174212.630000",
          "174212.630000",
          "174212.630000",
          "174212.630000",
          "174212.646000",
          "174212.646000",
          "174212.646000",
          "174212.646000",
          "174212.646000",
          "174212.661000",
          "174212.661000",
          "174212.661000",
          "174212.661000",
          "174212.661000",
          "174212.661000",
          "174212.677000",
          "174212.677000",
          "174212.677000",
          "174252.614000",
          "174252.630000",
          "174252.630000",
          "174252.630000",
          "174252.630000",
          "174252.630000",
          "174252.630000",
          "174252.630000",
          "174252.646000",
          "174252.646000",
          "174252.661000",
          "174252.661000",
          "174252.661000",
          "174252.677000",
          "174252.677000",
          "174252.677000",
          "174252.677000",
          "174252.677000",
          "174252.677000",
          "174252.692000",
          "174312.614000",
          "174312.630000",
          "174312.630000",
          "174312.630000",
          "174312.630000",
          "174312.646000",
          "174312.646000",
          "174312.646000",
          "174312.646000",
          "174312.646000",
          "174352.614000",
          "174352.614000",
          "174352.614000",
          "174352.630000",
          "174352.630000",
          "174352.630000",
          "174352.630000",
          "174352.646000",
          "174352.646000",
          "174352.646000",
          "174352.646000",
          "174352.646000",
          "174352.646000",
          "174352.661000",
          "174352.661000",
          "174352.661000",
          "174352.661000",
          "174352.661000",
          "174352.661000",
          "174352.661000",
          "174432.614000",
          "174432.614000",
          "174432.630000",
          "174432.630000",
          "174432.630000",
          "174432.630000",
          "174432.646000",
          "174432.646000",
          "174432.646000",
          "174432.646000",
          "174432.646000",
          "174432.646000",
          "174432.661000",
          "174432.661000",
          "174432.661000",
          "174432.661000",
          "174432.661000",
          "174432.677000",
          "174432.677000",
          "174432.677000",
          "174512.614000",
          "174512.614000",
          "174512.630000",
          "174512.630000",
          "174512.630000",
          "174512.630000",
          "174512.630000",
          "174512.630000",
          "174512.646000",
          "174512.646000",
          "174512.646000",
          "174512.646000",
          "174512.646000",
          "174512.646000",
          "174512.646000",
          "174512.661000",
          "174512.661000",
          "174512.661000",
          "174512.661000",
          "174512.677000",
          "174522.739000",
          "174522.739000",
          "174522.739000",
          "174522.755000",
          "174522.755000",
          "174522.755000"
        ],
        "InstanceNumber": [
          1,
          2,
          3,
          4,
          5,
          6,
          7,
          8,
          9,
          10,
          11,
          12,
          13,
          14,
          15,
          16,
          17,
          18,
          19,
          20,
          21,
          22,
          23,
          24,
          25,
          26,
          27,
          28,
          29,
          30,
          31,
          32,
          33,
          34,
          35,
          36,
          37,
          38,
          39,
          40,
          41,
          42,
          43,
          44,
          45,
          46,
          47,
          48,
          49,
          50,
          51,
          52,
          53,
          54,
          55,
          56,
          57,
          58,
          59,
          60,
          61,
          62,
          63,
          64,
          65,
          66,
          67,
          68,
          69,
          70,
          71,
          72,
          73,
          74,
          75,
          76,
          77,
          78,
          79,
          80,
          81,
          82,
          83,
          84,
          85,
          86,
          87,
          88,
          89,
          90,
          91,
          92,
          93,
          94,
          95,
          96,
          97,
          98,
          99,
          100,
          101,
          102,
          103,
          104,
          105,
          106,
          107,
          108,
          109,
          110,
          111,
          112,
          113,
          114,
          115,
          116,
          117,
          118,
          119,
          120,
          121,
          122,
          123,
          124,
          125,
          126,
          127,
          128,
          129,
          130,
          131,
          132,
          133,
          134,
          135,
          136,
          137,
          138,
          139,
          140,
          141,
          142,
          143,
          144,
          145,
          146,
          147,
          148,
          149,
          150,
          151,
          152,
          153,
          154,
          155,
          156,
          157,
          158,
          159,
          160,
          161,
          162,
          163,
          164
        ],
        "WindowCenter": [
          1227.0,
          1227.0,
          1229.0,
          1229.0,
          1227.0,
          1226.0,
          1229.0,
          1226.0,
          1225.0,
          1225.0,
          1224.0,
          1223.0,
          1223.0,
          1225.0,
          1226.0,
          1226.0,
          1226.0,
          1226.0,
          1224.0,
          1224.0,
          1227.0,
          1227.0,
          1227.0,
          1226.0,
          1227.0,
          1226.0,
          1225.0,
          1225.0,
          1222.0,
          1223.0,
          1226.0,
          1228.0,
          1227.0,
          1226.0,
          1223.0,
          1220.0,
          1222.0,
          1226.0,
          1230.0,
          1229.0,
          1225.0,
          1225.0,
          1226.0,
          1230.0,
          1232.0,
          1231.0,
          1232.0,
          1228.0,
          1226.0,
          1228.0,
          1227.0,
          1228.0,
          1229.0,
          1228.0,
          1228.0,
          1227.0,
          1231.0,
          1233.0,
          1230.0,
          1228.0,
          1227.0,
          1228.0,
          1229.0,
          1226.0,
          1223.0,
          1221.0,
          1221.0,
          1224.0,
          1225.0,
          1223.0,
          1225.0,
          1225.0,
          1226.0,
          1225.0,
          1223.0,
          1223.0,
          1225.0,
          1225.0,
          1223.0,
          1223.0,
          1222.0,
          1223.0,
          1226.0,
          1225.0,
          1224.0,
          1225.0,
          1226.0,
          1226.0,
          1228.0,
          1226.0,
          1223.0,
          1220.0,
          1221.0,
          1226.0,
          1229.0,
          1229.0,
          1227.0,
          1226.0,
          1227.0,
          1225.0,
          1225.0,
          1225.0,
          1228.0,
          1227.0,
          1224.0,
          1221.0,
          1221.0,
          1222.0,
          1224.0,
          1226.0,
          1226.0,
          1225.0,
          1226.0,
          1226.0,
          1225.0,
          1224.0,
          1223.0,
          1226.0,
          1228.0,
          1228.0,
          1224.0,
          1224.0,
          1225.0,
          1229.0,
          1227.0,
          1223.0,
          1220.0,
          1219.0,
          1224.0,
          1227.0,
          1227.0,
          1225.0,
          1223.0,
          1223.0,
          1225.0,
          1225.0,
          1223.0,
          1222.0,
          1224.0,
          1221.0,
          1222.0,
          1218.0,
          1219.0,
          1219.0,
          1214.0,
          1211.0,
          1212.0,
          1217.0,
          1222.0,
          1223.0,
          1224.0,
          1224.0,
          1230.0,
          1231.0,
          1231.0,
          1227.0,
          1224.0,
          1224.0,
          1225.0,
          1227.0,
          1228.0,
          1228.0,
          1227.0,
          1227.0
        ],
        "WindowWidth": [
          2930.0,
          2933.0,
          2938.0,
          2936.0,
          2930.0,
          2931.0,
          2935.0,
          2932.0,
          2929.0,
          2929.0,
          2926.0,
          2922.0,
          2923.0,
          2927.0,
          2930.0,
          2931.0,
          2930.0,
          2929.0,
          2927.0,
          2928.0,
          2936.0,
          2935.0,
          2933.0,
          2934.0,
          2936.0,
          2935.0,
          2933.0,
          2929.0,
          2924.0,
          2926.0,
          2936.0,
          2941.0,
          2938.0,
          2931.0,
          2923.0,
          2920.0,
          2925.0,
          2937.0,
          2944.0,
          2935.0,
          2929.0,
          2930.0,
          2935.0,
          2944.0,
          2947.0,
          2946.0,
          2942.0,
          2936.0,
          2935.0,
          2938.0,
          2938.0,
          2940.0,
          2939.0,
          2935.0,
          2936.0,
          2936.0,
          2947.0,
          2950.0,
          2940.0,
          2933.0,
          2934.0,
          2938.0,
          2939.0,
          2933.0,
          2925.0,
          2920.0,
          2924.0,
          2930.0,
          2930.0,
          2928.0,
          2932.0,
          2934.0,
          2934.0,
          2931.0,
          2927.0,
          2928.0,
          2932.0,
          2930.0,
          2926.0,
          2925.0,
          2924.0,
          2928.0,
          2932.0,
