{
  "aor": 0.0027545121951219513,
  "aqi": 0.004624768231707317,
  "bids_meta": {
    "AcquisitionMatrixPE": 96,
    "AcquisitionNumber": 1,
    "AcquisitionTime": "18:20:13.777500",
    "BandwidthPerPixelPhaseEncode": 52.083,
    "BaseResolution": 96,
    "BodyPartExamined": "HEAD",
    "ConversionSoftware": "dcm2niix",
    "ConversionSoftwareVersion": "v1.0.20180622 GCC6.3.0",
    "DerivedVendorReportedEchoSpacing": 0.000600004,
    "DeviceSerialNumber": "18926",
    "DwellTime": 2.6e-06,
    "EchoTime": 0.025,
    "EffectiveEchoSpacing": 0.000200001,
    "FlipAngle": 50,
    "ImageOrientationPatientDICOM": [
      0.999992,
      0.00075477,
      0.00403413,
      1.95081e-10,
      0.982944,
      -0.183905
    ],
    "ImageType": [
      "ORIGINAL",
      "PRIMARY",
      "M",
      "ND",
      "ECHO",
      "00",
      "MOSAIC"
    ],
    "InPlanePhaseEncodingDirectionDICOM": "ROW",
    "InstitutionName": "NIMH",
    "InstitutionalDepartmentName": "Department",
    "MRAcquisitionType": "2D",
    "MagneticFieldStrength": 6.98,
    "Manufacturer": "Siemens",
    "ManufacturersModelName": "Investigational_Device_7T",
    "Modality": "MR",
    "ParallelReductionFactorInPlane": 3,
    "PartialFourier": 1,
    "PatientPosition": "HFS",
    "PercentPhaseFOV": 100,
    "PhaseEncodingDirection": "i",
    "PhaseEncodingSteps": 94,
    "PhaseResolution": 1,
    "PixelBandwidth": 2003,
    "ProcedureStepDescription": "MRI_Procedure_Limited",
    "ProtocolName": "NIH_EPI_2.0iso_TR2_Run08",
    "PulseSequenceDetails": "%CustomerSeq%_inati_nih_epi",
    "ReceiveCoilName": "32Ch_Head_7T",
    "ReconMatrixPE": 96,
    "RepetitionTime": 2,
    "SAR": 0.0759193,
    "ScanningSequence": "EP",
    "SequenceName": "epfid2d1_96",
    "SequenceVariant": "SK",
    "SeriesDescription": "NIH_EPI_2.0iso_TR2_Run08",
    "SeriesNumber": 12,
    "ShimSetting": [
      -81,
      225,
      813,
      914,
      -204,
      728,
      -152,
      -457
    ],
    "SliceThickness": 2,
    "SliceTiming": [
      1.005,
      0,
      1.0425,
      0.0375,
      1.0775,
      0.075,
      1.115,
      0.1125,
      1.1525,
      0.15,
      1.19,
      0.1875,
      1.2275,
      0.2225,
      1.265,
      0.26,
      1.3025,
      0.2975,
      1.34,
      0.335,
      1.375,
      0.3725,
      1.4125,
      0.41,
      1.45,
      0.4475,
      1.4875,
      0.485,
      1.525,
      0.52,
      1.5625,
      0.5575,
      1.6,
      0.595,
      1.6375,
      0.6325,
      1.6725,
      0.67,
      1.71,
      0.7075,
      1.7475,
      0.745,
      1.785,
      0.78,
      1.8225,
      0.8175,
      1.86,
      0.855,
      1.8975,
      0.8925,
      1.9325,
      0.93,
      1.97,
      0.9675
    ],
    "SoftwareVersions": "syngo_MR_B17",
    "SpacingBetweenSlices": 2,
    "StationName": "FMRIFD7T",
    "TaskName": "HalfFovNoTask",
    "TotalReadoutTime": 0.0190001,
    "TxRefAmp": 318,
    "dataset": "ds001555",
    "dcmmeta_affine": [
      [
        -1.9999831914901733,
        3.901620138080375e-10,
        0.008208253420889378,
        95.76705169677734
      ],
      [
        -0.001509539200924337,
        1.9658880233764648,
        -0.3678070902824402,
        -55.60440444946289
      ],
      [
        0.00806825328618288,
        0.3678101897239685,
        1.9658714532852173,
        -48.712867736816406
      ],
      [
        0.0,
        0.0,
        0.0,
        1.0
      ]
    ],
    "dcmmeta_reorient_transform": [
      [
        0.0,
        -1.0,
        0.0,
        95.0
      ],
      [
        1.0,
        0.0,
        0.0,
        0.0
      ],
      [
        0.0,
        0.0,
        1.0,
        0.0
      ],
      [
        0.0,
        0.0,
        0.0,
        1.0
      ]
    ],
    "dcmmeta_shape": [
      96,
      96,
      54,
      164
    ],
    "dcmmeta_slice_dim": 2,
    "dcmmeta_version": 0.6,
    "global": {
      "const": {
        "AcquisitionMatrix": [
          0,
          96,
          96,
          0
        ],
        "Allergies": "No Known Allergies",
        "AngioFlag": "N",
        "BitsAllocated": 16,
        "BitsStored": 12,
        "BodyPartExamined": "HEAD",
        "Columns": 768,
        "EchoNumbers": 1,
        "EchoTime": 25.0,
        "EchoTrainLength": 1,
        "FlipAngle": 50.0,
        "HighBit": 11,
        "ImageOrientationPatient": [
          0.99999157803709,
          0.00075476959348,
          0.00403412664115,
          1.95081e-10,
          0.98294400458809,
          -0.1839050946666
        ],
        "ImagePositionPatient": [
          -767.76139276313,
          -792.20053390714,
          107.10239025995
        ],
        "ImageType": [
          "ORIGINAL",
          "PRIMARY",
          "M",
          "ND",
          "ECHO_00",
          "MOSAIC"
        ],
        "ImagedNucleus": "1H",
        "ImagingFrequency": 297.205207,
        "InPlanePhaseEncodingDirection": "ROW",
        "LargestImagePixelValue": 4095,
        "MRAcquisitionType": "2D",
        "MagneticFieldStrength": 6.98,
        "Manufacturer": "SIEMENS",
        "ManufacturerModelName": "Investigational_Device_7T",
        "Modality": "MR",
        "NumberOfAverages": 1.0,
        "NumberOfPhaseEncodingSteps": 94,
        "PercentPhaseFieldOfView": 100.0,
        "PercentSampling": 100.0,
        "PerformedProcedureStepStartTime": "171202.224000",
        "PhotometricInterpretation": "MONOCHROME2",
        "PixelBandwidth": 2003.0,
        "PixelRepresentation": 0,
        "PixelSpacing": [
          2.0,
          2.0
        ],
        "PositionReferenceIndicator": "",
        "ProcedureCodeSequence": [
          {
            "CodeMeaning": "MRI Procedure Limited",
            "CodeValue": "MI01491",
            "CodingSchemeDesignator": "USA Standard",
            "ContextIdentifier": "4000100971"
          }
        ],
        "ProtocolName": "NIH_EPI_2.0iso_TR2_Run08",
        "ReferencedStudySequence": [
          {
            "ReferencedSOPClassUID": "1.2.840.10008.3.1.2.3.1",
            "ReferencedSOPInstanceUID": "1.2.840.113564.9.1.2723958737.61.2.5000066736"
          }
        ],
        "RepetitionTime": 2000.0,
        "RequestedProcedureCodeSequence": [
          {
            "CodeMeaning": "MRI Procedure Limited",
            "CodeValue": "MI01491",
            "CodingSchemeDesignator": "USA Standard",
            "ContextIdentifier": "4000100971"
          }
        ],
        "RequestingService": "MHMI",
        "Rows": 768,
        "SAR": 0.07591928494032,
        "SamplesPerPixel": 1,
        "ScanningSequence": "EP",
        "SequenceName": "epfid2d1_96",
        "SequenceVariant": "SK",
        "SeriesDescription": "NIH_EPI_2.0iso_TR2_Run08",
        "SeriesNumber": 12,
        "SliceLocation": -37.262731504108,
        "SliceThickness": 2.0,
        "SmallestImagePixelValue": 0,
        "SoftwareVersions": "syngo MR B17",
        "SpacingBetweenSlices": 1.9999999647591,
        "TransmitCoilName": "32Ch_Head_7T",
        "VariableFlipAngleFlag": "N",
        "WindowCenterWidthExplanation": "Algo1",
        "dBdt": 0.0
      },
      "slices": {}
    },
    "modality": "bold",
    "run_id": 9,
    "session_id": "05",
    "subject_id": "001",
    "task_id": "HalfFovNoTask",
    "time": {
      "samples": {
        "AcquisitionNumber": [
          1,
          2,
          3,
          4,
          5,
          6,
          7,
          8,
          9,
          10,
          11,
          12,
          13,
          14,
          15,
          16,
          17,
          18,
          19,
          20,
          21,
          22,
          23,
          24,
          25,
          26,
          27,
          28,
          29,
          30,
          31,
          32,
          33,
          34,
          35,
          36,
          37,
          38,
          39,
          40,
          41,
          42,
          43,
          44,
          45,
          46,
          47,
          48,
          49,
          50,
          51,
          52,
          53,
          54,
          55,
          56,
          57,
          58,
          59,
          60,
          61,
          62,
          63,
          64,
          65,
          66,
          67,
          68,
          69,
          70,
          71,
          72,
          73,
          74,
          75,
          76,
          77,
          78,
          79,
          80,
          81,
          82,
          83,
          84,
          85,
          86,
          87,
          88,
          89,
          90,
          91,
          92,
          93,
          94,
          95,
          96,
          97,
          98,
          99,
          100,
          101,
          102,
          103,
          104,
          105,
          106,
          107,
          108,
          109,
          110,
          111,
          112,
          113,
          114,
          115,
          116,
          117,
          118,
          119,
          120,
          121,
          122,
          123,
          124,
          125,
          126,
          127,
          128,
          129,
          130,
          131,
          132,
          133,
          134,
          135,
          136,
          137,
          138,
          139,
          140,
          141,
          142,
          143,
          144,
          145,
          146,
          147,
          148,
          149,
          150,
          151,
          152,
          153,
          154,
          155,
          156,
          157,
          158,
          159,
          160,
          161,
          162,
          163,
          164
        ],
        "AcquisitionTime": [
          "182013.777500",
          "182017.792500",
          "182019.800000",
          "182021.810000",
          "182023.817500",
          "182025.825000",
          "182027.832500",
          "182029.840000",
          "182031.850000",
          "182033.857500",
          "182035.865000",
          "182037.872500",
          "182039.880000",
          "182041.890000",
          "182043.897500",
          "182045.905000",
          "182047.912500",
          "182049.922500",
          "182051.930000",
          "182053.937500",
          "182055.945000",
          "182057.952500",
          "182059.962500",
          "182101.970000",
          "182103.977500",
          "182105.985000",
          "182107.992500",
          "182110.002500",
          "182112.010000",
          "182114.017500",
          "182116.025000",
          "182118.035000",
          "182120.042500",
          "182122.050000",
          "182124.057500",
          "182126.065000",
          "182128.075000",
          "182130.082500",
          "182132.090000",
          "182134.097500",
          "182136.105000",
          "182138.115000",
          "182140.122500",
          "182142.130000",
          "182144.137500",
          "182146.145000",
          "182148.155000",
          "182150.162500",
          "182152.170000",
          "182154.177500",
          "182156.187500",
          "182158.195000",
          "182200.202500",
          "182202.210000",
          "182204.217500",
          "182206.227500",
          "182208.235000",
          "182210.242500",
          "182212.250000",
          "182214.257500",
          "182216.267500",
          "182218.275000",
          "182220.282500",
          "182222.290000",
          "182224.300000",
          "182226.307500",
          "182228.315000",
          "182230.322500",
          "182232.330000",
          "182234.340000",
          "182236.347500",
          "182238.355000",
          "182240.362500",
          "182242.370000",
          "182244.380000",
          "182246.387500",
          "182248.395000",
          "182250.402500",
          "182252.412500",
          "182254.420000",
          "182256.427500",
          "182258.435000",
          "182300.442500",
          "182302.452500",
          "182304.460000",
          "182306.467500",
          "182308.475000",
          "182310.482500",
          "182312.492500",
          "182314.500000",
          "182316.507500",
          "182318.515000",
          "182320.525000",
          "182322.532500",
          "182324.540000",
          "182326.547500",
          "182328.555000",
          "182330.565000",
          "182332.572500",
          "182334.580000",
          "182336.587500",
          "182338.595000",
          "182340.605000",
          "182342.612500",
          "182344.620000",
          "182346.627500",
          "182348.635000",
          "182350.645000",
          "182352.652500",
          "182354.660000",
          "182356.667500",
          "182358.677500",
          "182400.685000",
          "182402.692500",
          "182404.700000",
          "182406.707500",
          "182408.717500",
          "182410.725000",
          "182412.732500",
          "182414.740000",
          "182416.747500",
          "182418.757500",
          "182420.765000",
          "182422.772500",
          "182424.780000",
          "182426.790000",
          "182428.797500",
          "182430.805000",
          "182432.812500",
          "182434.820000",
          "182436.830000",
          "182438.837500",
          "182440.845000",
          "182442.852500",
          "182444.860000",
          "182446.870000",
          "182448.877500",
          "182450.885000",
          "182452.892500",
          "182454.902500",
          "182456.910000",
          "182458.917500",
          "182500.925000",
          "182502.932500",
          "182504.942500",
          "182506.950000",
          "182508.957500",
          "182510.965000",
          "182512.972500",
          "182514.982500",
          "182516.990000",
          "182518.997500",
          "182521.005000",
          "182523.012500",
          "182525.022500",
          "182527.030000",
          "182529.037500",
          "182531.045000",
          "182533.055000",
          "182535.062500",
          "182537.070000",
          "182539.077500",
          "182541.085000",
          "182543.095000"
        ],
        "ContentTime": [
          "182112.630000",
          "182112.630000",
          "182112.630000",
          "182112.630000",
          "182112.630000",
          "182112.630000",
          "182112.646000",
          "182112.646000",
          "182112.646000",
          "182112.646000",
          "182112.646000",
          "182112.646000",
          "182112.646000",
          "182112.661000",
          "182112.661000",
          "182112.661000",
          "182112.661000",
          "182112.661000",
          "182112.677000",
          "182112.677000",
          "182112.677000",
          "182112.677000",
          "182112.692000",
          "182112.692000",
          "182112.692000",
          "182112.692000",
          "182112.692000",
          "182112.692000",
          "182152.614000",
          "182152.614000",
          "182152.614000",
          "182152.614000",
          "182152.630000",
          "182152.630000",
          "182152.630000",
          "182152.630000",
          "182152.630000",
          "182152.630000",
          "182152.630000",
          "182152.646000",
          "182152.646000",
          "182152.646000",
          "182152.646000",
          "182152.646000",
          "182152.646000",
          "182152.661000",
          "182152.661000",
          "182152.661000",
          "182232.614000",
          "182232.614000",
          "182232.614000",
          "182232.630000",
          "182232.630000",
          "182232.630000",
          "182232.630000",
          "182232.630000",
          "182232.630000",
          "182232.646000",
          "182232.646000",
          "182232.646000",
          "182232.646000",
          "182232.646000",
          "182232.661000",
          "182232.661000",
          "182232.661000",
          "182232.661000",
          "182232.661000",
          "182232.661000",
          "182312.614000",
          "182312.630000",
          "182312.630000",
          "182312.630000",
          "182312.630000",
          "182312.630000",
          "182312.630000",
          "182312.646000",
          "182312.646000",
          "182312.646000",
          "182312.646000",
          "182312.646000",
          "182312.646000",
          "182312.646000",
          "182312.661000",
          "182312.661000",
          "182312.661000",
          "182312.661000",
          "182312.661000",
          "182312.661000",
          "182352.614000",
          "182352.630000",
          "182352.630000",
          "182352.630000",
          "182352.646000",
          "182352.646000",
          "182352.646000",
          "182352.646000",
          "182352.646000",
          "182352.646000",
          "182352.661000",
          "182352.661000",
          "182352.661000",
          "182352.661000",
          "182352.661000",
          "182352.661000",
          "182352.677000",
          "182352.677000",
          "182352.677000",
          "182352.677000",
          "182432.614000",
          "182432.630000",
          "182432.630000",
          "182432.630000",
          "182432.630000",
          "182432.630000",
          "182432.630000",
          "182432.646000",
          "182432.646000",
          "182432.646000",
          "182432.646000",
          "182432.646000",
          "182432.646000",
          "182432.661000",
          "182432.661000",
          "182432.661000",
          "182432.661000",
          "182432.661000",
          "182432.661000",
          "182432.661000",
          "182512.614000",
          "182512.630000",
          "182512.630000",
          "182512.630000",
          "182512.630000",
          "182512.630000",
          "182512.630000",
          "182512.646000",
          "182512.646000",
          "182512.646000",
          "182512.646000",
          "182512.646000",
          "182512.646000",
          "182512.661000",
          "182512.661000",
          "182512.661000",
          "182512.661000",
          "182512.661000",
          "182512.661000",
          "182512.677000",
          "182543.911000",
          "182543.927000",
          "182543.927000",
          "182543.927000",
          "182543.927000",
          "182543.927000",
          "182543.942000",
          "182543.942000",
          "182543.942000",
          "182543.942000",
          "182543.942000",
          "182543.958000",
          "182543.958000",
          "182543.958000",
          "182543.958000",
          "182543.958000"
        ],
        "InstanceCreationTime": [
          "182112.630000",
          "182112.630000",
          "182112.630000",
          "182112.630000",
          "182112.630000",
          "182112.630000",
          "182112.646000",
          "182112.646000",
          "182112.646000",
          "182112.646000",
          "182112.646000",
          "182112.646000",
          "182112.646000",
          "182112.661000",
          "182112.661000",
          "182112.661000",
          "182112.661000",
          "182112.661000",
          "182112.677000",
          "182112.677000",
          "182112.677000",
          "182112.677000",
          "182112.692000",
          "182112.692000",
          "182112.692000",
          "182112.692000",
          "182112.692000",
          "182112.692000",
          "182152.614000",
          "182152.614000",
          "182152.614000",
          "182152.614000",
          "182152.630000",
          "182152.630000",
          "182152.630000",
          "182152.630000",
          "182152.630000",
          "182152.630000",
          "182152.630000",
          "182152.646000",
          "182152.646000",
          "182152.646000",
          "182152.646000",
          "182152.646000",
          "182152.646000",
          "182152.661000",
          "182152.661000",
          "182152.661000",
          "182232.614000",
          "182232.614000",
          "182232.614000",
          "182232.630000",
          "182232.630000",
          "182232.630000",
          "182232.630000",
          "182232.630000",
          "182232.630000",
          "182232.646000",
          "182232.646000",
          "182232.646000",
          "182232.646000",
          "182232.646000",
          "182232.661000",
          "182232.661000",
          "182232.661000",
          "182232.661000",
          "182232.661000",
          "182232.661000",
          "182312.614000",
          "182312.630000",
          "182312.630000",
          "182312.630000",
          "182312.630000",
          "182312.630000",
          "182312.630000",
          "182312.646000",
          "182312.646000",
          "182312.646000",
          "182312.646000",
          "182312.646000",
          "182312.646000",
          "182312.646000",
          "182312.661000",
          "182312.661000",
          "182312.661000",
          "182312.661000",
          "182312.661000",
          "182312.661000",
          "182352.614000",
          "182352.630000",
          "182352.630000",
          "182352.630000",
          "182352.646000",
          "182352.646000",
          "182352.646000",
          "182352.646000",
          "182352.646000",
          "182352.646000",
          "182352.661000",
          "182352.661000",
          "182352.661000",
          "182352.661000",
          "182352.661000",
          "182352.661000",
          "182352.677000",
          "182352.677000",
          "182352.677000",
          "182352.677000",
          "182432.614000",
          "182432.630000",
          "182432.630000",
          "182432.630000",
          "182432.630000",
          "182432.630000",
          "182432.630000",
          "182432.646000",
          "182432.646000",
          "182432.646000",
          "182432.646000",
          "182432.646000",
          "182432.646000",
          "182432.661000",
          "182432.661000",
          "182432.661000",
          "182432.661000",
          "182432.661000",
          "182432.661000",
          "182432.661000",
          "182512.614000",
          "182512.630000",
          "182512.630000",
          "182512.630000",
          "182512.630000",
          "182512.630000",
          "182512.630000",
          "182512.646000",
          "182512.646000",
          "182512.646000",
          "182512.646000",
          "182512.646000",
          "182512.646000",
          "182512.661000",
          "182512.661000",
          "182512.661000",
          "182512.661000",
          "182512.661000",
          "182512.661000",
          "182512.677000",
          "182543.911000",
          "182543.927000",
          "182543.927000",
          "182543.927000",
          "182543.927000",
          "182543.927000",
          "182543.942000",
          "182543.942000",
          "182543.942000",
          "182543.942000",
          "182543.942000",
          "182543.958000",
          "182543.958000",
          "182543.958000",
          "182543.958000",
          "182543.958000"
        ],
        "InstanceNumber": [
          1,
          2,
          3,
          4,
          5,
          6,
          7,
          8,
          9,
          10,
          11,
          12,
          13,
          14,
          15,
          16,
          17,
          18,
          19,
          20,
          21,
          22,
          23,
          24,
          25,
          26,
          27,
          28,
          29,
          30,
          31,
          32,
          33,
          34,
          35,
          36,
          37,
          38,
          39,
          40,
          41,
          42,
          43,
          44,
          45,
          46,
          47,
          48,
          49,
          50,
          51,
          52,
          53,
          54,
          55,
          56,
          57,
          58,
          59,
          60,
          61,
          62,
          63,
          64,
          65,
          66,
          67,
          68,
          69,
          70,
          71,
          72,
          73,
          74,
          75,
          76,
          77,
          78,
          79,
          80,
          81,
          82,
          83,
          84,
          85,
          86,
          87,
          88,
          89,
          90,
          91,
          92,
          93,
          94,
          95,
          96,
          97,
          98,
          99,
          100,
          101,
          102,
          103,
          104,
          105,
          106,
          107,
          108,
          109,
          110,
          111,
          112,
          113,
          114,
          115,
          116,
          117,
          118,
          119,
          120,
          121,
          122,
          123,
          124,
          125,
          126,
          127,
          128,
          129,
          130,
          131,
          132,
          133,
          134,
          135,
          136,
          137,
          138,
          139,
          140,
          141,
          142,
          143,
          144,
          145,
          146,
          147,
          148,
          149,
          150,
          151,
          152,
          153,
          154,
          155,
          156,
          157,
          158,
          159,
          160,
          161,
          162,
          163,
          164
        ],
        "WindowCenter": [
          1220.0,
          1221.0,
          1222.0,
          1221.0,
          1221.0,
          1219.0,
          1219.0,
          1219.0,
          1220.0,
          1220.0,
          1218.0,
          1216.0,
          1217.0,
          1218.0,
          1220.0,
          1221.0,
          1220.0,
          1220.0,
          1221.0,
          1224.0,
          1223.0,
          1218.0,
          1215.0,
          1217.0,
          1218.0,
          1220.0,
          1220.0,
          1218.0,
          1217.0,
          1217.0,
          1219.0,
          1220.0,
          1223.0,
          1223.0,
          1221.0,
          1220.0,
          1219.0,
          1219.0,
          1217.0,
          1217.0,
          1217.0,
          1219.0,
          1220.0,
          1221.0,
          1221.0,
          1221.0,
          1221.0,
          1221.0,
          1221.0,
          1222.0,
          1219.0,
          1219.0,
          1219.0,
          1220.0,
          1218.0,
          1217.0,
          1218.0,
          1218.0,
          1219.0,
          1220.0,
          1221.0,
          1222.0,
          1220.0,
          1218.0,
          1220.0,
          1221.0,
          1222.0,
          1223.0,
          1221.0,
          1218.0,
          1216.0,
          1217.0,
          1218.0,
          1219.0,
          1217.0,
          1216.0,
          1217.0,
          1222.0,
          1223.0,
          1221.0,
          1219.0,
          1218.0,
          1218.0,
          1222.0,
          1223.0,
          1223.0,
          1218.0,
          1217.0,
          1217.0,
          1219.0,
          1220.0,
          1220.0,
          1217.0,
          1217.0,
          1218.0,
          1223.0,
          1225.0,
          1224.0,
          1222.0,
          1220.0,
          1219.0,
          1220.0,
          1220.0,
          1220.0,
          1219.0,
          1218.0,
          1220.0,
          1223.0,
          1223.0,
          1219.0,
          1217.0,
          1217.0,
          1221.0,
          1223.0,
          1222.0,
          1219.0,
          1217.0,
          1215.0,
          1216.0,
          1215.0,
          1217.0,
          1219.0,
          1219.0,
          1218.0,
          1219.0,
          1218.0,
          1216.0,
          1219.0,
          1220.0,
          1220.0,
          1219.0,
          1221.0,
          1220.0,
          1219.0,
          1217.0,
          1214.0,
          1216.0,
          1217.0,
          1218.0,
          1218.0,
          1218.0,
          1218.0,
          1220.0,
          1221.0,
          1221.0,
          1221.0,
          1219.0,
          1219.0,
          1219.0,
          1218.0,
          1218.0,
          1222.0,
          1225.0,
          1223.0,
          1222.0,
          1223.0,
          1224.0,
          1225.0,
          1224.0,
          1219.0,
          1219.0,
          1219.0,
          1219.0,
          1218.0
        ],
        "WindowWidth": [
          2918.0,
          2924.0,
          2925.0,
          2923.0,
          2919.0,
          2913.0,
          2916.0,
          2918.0,
          2920.0,
          2916.0,
          2912.0,
          2908.0,
          2910.0,
          2915.0,
          2918.0,
          2919.0,
          2918.0,
          2919.0,
          2927.0,
          2930.0,
          2923.0,
          2912.0,
          2907.0,
          2910.0,
          2917.0,
          2917.0,
          2916.0,
          2915.0,
          2910.0,
          2911.0,
          2915.0,
          2921.0,
          2924.0,
          2923.0,
          2919.0,
          2918.0,
          2918.0,
          2918.0,
          2914.0,
          2912.0,
          2915.0,
          2917.0,
          2920.0,
          2922.0,
          2922.0,
          2922.0,
          2920.0,
          2921.0,
          2922.0,
          2920.0,
          2917.0,
          2916.0,
          2917.0,
          2918.0,
          2916.0,
          2913.0,
          2913.0,
          2914.0,
          2918.0,
          2923.0,
          2922.0,
          2924.0,
          2920.0,
          2917.0,
          2920.0,
          2923.0,
          2928.0,
          2925.0,
          2921.0,
          2915.0,
          2912.0,
          2916.0,
          2919.0,
          2919.0,
          2915.0,
          2909.0,
          2913.0,
          2926.0,
          2928.0,
          2921.0,
          2917.0,
          2914.0,
          2918.0,
