{
  "aor": 0.0014246341463414634,
  "aqi": 0.005636027256097561,
  "bids_meta": {
    "AcquisitionMatrixPE": 96,
    "AcquisitionNumber": 1,
    "AcquisitionTime": "17:33:46.070000",
    "BandwidthPerPixelPhaseEncode": 52.083,
    "BaseResolution": 96,
    "ConversionSoftware": "dcm2niix",
    "ConversionSoftwareVersion": "v1.0.20180622 GCC6.3.0",
    "DerivedVendorReportedEchoSpacing": 0.000600004,
    "DeviceSerialNumber": "18926",
    "DwellTime": 2.6e-06,
    "EchoTime": 0.025,
    "EffectiveEchoSpacing": 0.000200001,
    "FlipAngle": 50,
    "ImageOrientationPatientDICOM": [
      0.999992,
      0.00067012,
      0.00404905,
      2.11009e-10,
      0.98658,
      -0.16328
    ],
    "ImageType": [
      "ORIGINAL",
      "PRIMARY",
      "M",
      "ND",
      "ECHO",
      "00",
      "MOSAIC"
    ],
    "InPlanePhaseEncodingDirectionDICOM": "ROW",
    "InstitutionName": "NIMH",
    "InstitutionalDepartmentName": "Department",
    "MRAcquisitionType": "2D",
    "MagneticFieldStrength": 6.98,
    "Manufacturer": "Siemens",
    "ManufacturersModelName": "Investigational_Device_7T",
    "Modality": "MR",
    "ParallelReductionFactorInPlane": 3,
    "PartialFourier": 1,
    "PatientPosition": "HFS",
    "PercentPhaseFOV": 100,
    "PhaseEncodingDirection": "i",
    "PhaseEncodingSteps": 94,
    "PhaseResolution": 1,
    "PixelBandwidth": 2003,
    "ProcedureStepDescription": "UserProtocols_gonzalez",
    "ProtocolName": "NIH_EPI_2.0iso_TR2_Run09",
    "PulseSequenceDetails": "%CustomerSeq%_inati_nih_epi",
    "ReceiveCoilName": "32Ch_Head_7T",
    "ReconMatrixPE": 96,
    "RepetitionTime": 2,
    "SAR": 0.0888511,
    "ScanningSequence": "EP",
    "SequenceName": "epfid2d1_96",
    "SequenceVariant": "SK",
    "SeriesDescription": "NIH_EPI_2.0iso_TR2_Run09",
    "SeriesNumber": 13,
    "ShimSetting": [
      -65,
      250,
      1009,
      2159,
      -30,
      1067,
      303,
      -330
    ],
    "SliceThickness": 2,
    "SliceTiming": [
      1.005,
      0,
      1.04,
      0.0375,
      1.0775,
      0.075,
      1.115,
      0.1125,
      1.1525,
      0.1475,
      1.19,
      0.185,
      1.2275,
      0.2225,
      1.265,
      0.26,
      1.3,
      0.2975,
      1.3375,
      0.335,
      1.375,
      0.3725,
      1.4125,
      0.41,
      1.45,
      0.445,
      1.4875,
      0.4825,
      1.525,
      0.52,
      1.5625,
      0.5575,
      1.5975,
      0.595,
      1.635,
      0.6325,
      1.6725,
      0.67,
      1.71,
      0.7075,
      1.7475,
      0.7425,
      1.785,
      0.78,
      1.8225,
      0.8175,
      1.86,
      0.855,
      1.895,
      0.8925,
      1.9325,
      0.93,
      1.97,
      0.9675
    ],
    "SoftwareVersions": "syngo_MR_B17",
    "SpacingBetweenSlices": 2,
    "StationName": "FMRIFD7T",
    "TaskName": "FullFovAttentionTask",
    "TotalReadoutTime": 0.0190001,
    "TxRefAmp": 277,
    "dataset": "ds001555",
    "dcmmeta_affine": [
      [
        -1.9999831914901733,
        4.2201880878778297e-10,
        0.008208253420889378,
        95.76705169677734
      ],
      [
        -0.0013402394251897931,
        1.973159670829773,
        -0.32655632495880127,
        -60.41937255859375
      ],
      [
        0.008098097518086433,
        0.32655906677246094,
        1.9731431007385254,
        -53.714908599853516
      ],
      [
        0.0,
        0.0,
        0.0,
        1.0
      ]
    ],
    "dcmmeta_reorient_transform": [
      [
        0.0,
        -1.0,
        0.0,
        95.0
      ],
      [
        1.0,
        0.0,
        0.0,
        0.0
      ],
      [
        0.0,
        0.0,
        1.0,
        0.0
      ],
      [
        0.0,
        0.0,
        0.0,
        1.0
      ]
    ],
    "dcmmeta_shape": [
      96,
      96,
      54,
      164
    ],
    "dcmmeta_slice_dim": 2,
    "dcmmeta_version": 0.6,
    "global": {
      "const": {
        "AcquisitionMatrix": [
          0,
          96,
          96,
          0
        ],
        "AngioFlag": "N",
        "BitsAllocated": 16,
        "BitsStored": 12,
        "Columns": 768,
        "EchoNumbers": 1,
        "EchoTime": 25.0,
        "EchoTrainLength": 1,
        "FlipAngle": 50.0,
        "HighBit": 11,
        "ImageOrientationPatient": [
          0.99999157803662,
          0.00067011969073,
          0.00404904870684,
          2.110094e-10,
          0.98657984636313,
          -0.1632795356133
        ],
        "ImagePositionPatient": [
          -767.761392775,
          -790.46277663322,
          84.311089597242
        ],
        "ImageType": [
          "ORIGINAL",
          "PRIMARY",
          "M",
          "ND",
          "ECHO_00",
          "MOSAIC"
        ],
        "ImagedNucleus": "1H",
        "ImagingFrequency": 297.205104,
        "InPlanePhaseEncodingDirection": "ROW",
        "LargestImagePixelValue": 4095,
        "MRAcquisitionType": "2D",
        "MagneticFieldStrength": 6.98,
        "Manufacturer": "SIEMENS",
        "ManufacturerModelName": "Investigational_Device_7T",
        "Modality": "MR",
        "NumberOfAverages": 1.0,
        "NumberOfPhaseEncodingSteps": 94,
        "PercentPhaseFieldOfView": 100.0,
        "PercentSampling": 100.0,
        "PerformedProcedureStepStartTime": "162624.484000",
        "PhotometricInterpretation": "MONOCHROME2",
        "PixelBandwidth": 2003.0,
        "PixelRepresentation": 0,
        "PixelSpacing": [
          2.0,
          2.0
        ],
        "PositionReferenceIndicator": "",
        "ProtocolName": "NIH_EPI_2.0iso_TR2_Run09",
        "RepetitionTime": 2000.0,
        "Rows": 768,
        "SAR": 0.08885112147589,
        "SamplesPerPixel": 1,
        "ScanningSequence": "EP",
        "SequenceName": "epfid2d1_96",
        "SequenceVariant": "SK",
        "SeriesDescription": "NIH_EPI_2.0iso_TR2_Run09",
        "SeriesNumber": 13,
        "SliceLocation": -42.735396792406,
        "SliceThickness": 2.0,
        "SmallestImagePixelValue": 0,
        "SoftwareVersions": "syngo MR B17",
        "SpacingBetweenSlices": 2.0000000864935,
        "TransmitCoilName": "32Ch_Head_7T",
        "VariableFlipAngleFlag": "N",
        "WindowCenterWidthExplanation": "Algo1",
        "dBdt": 0.0
      },
      "slices": {}
    },
    "modality": "bold",
    "run_id": 10,
    "session_id": "02",
    "subject_id": "003",
    "task_id": "FullFovAttentionTask",
    "time": {
      "samples": {
        "AcquisitionNumber": [
          1,
          2,
          3,
          4,
          5,
          6,
          7,
          8,
          9,
          10,
          11,
          12,
          13,
          14,
          15,
          16,
          17,
          18,
          19,
          20,
          21,
          22,
          23,
          24,
          25,
          26,
          27,
          28,
          29,
          30,
          31,
          32,
          33,
          34,
          35,
          36,
          37,
          38,
          39,
          40,
          41,
          42,
          43,
          44,
          45,
          46,
          47,
          48,
          49,
          50,
          51,
          52,
          53,
          54,
          55,
          56,
          57,
          58,
          59,
          60,
          61,
          62,
          63,
          64,
          65,
          66,
          67,
          68,
          69,
          70,
          71,
          72,
          73,
          74,
          75,
          76,
          77,
          78,
          79,
          80,
          81,
          82,
          83,
          84,
          85,
          86,
          87,
          88,
          89,
          90,
          91,
          92,
          93,
          94,
          95,
          96,
          97,
          98,
          99,
          100,
          101,
          102,
          103,
          104,
          105,
          106,
          107,
          108,
          109,
          110,
          111,
          112,
          113,
          114,
          115,
          116,
          117,
          118,
          119,
          120,
          121,
          122,
          123,
          124,
          125,
          126,
          127,
          128,
          129,
          130,
          131,
          132,
          133,
          134,
          135,
          136,
          137,
          138,
          139,
          140,
          141,
          142,
          143,
          144,
          145,
          146,
          147,
          148,
          149,
          150,
          151,
          152,
          153,
          154,
          155,
          156,
          157,
          158,
          159,
          160,
          161,
          162,
          163,
          164
        ],
        "AcquisitionTime": [
          "173346.070000",
          "173350.085000",
          "173352.092500",
          "173354.100000",
          "173356.110000",
          "173358.117500",
          "173400.125000",
          "173402.132500",
          "173404.140000",
          "173406.150000",
          "173408.157500",
          "173410.165000",
          "173412.172500",
          "173414.180000",
          "173416.190000",
          "173418.197500",
          "173420.205000",
          "173422.212500",
          "173424.222500",
          "173426.230000",
          "173428.237500",
          "173430.245000",
          "173432.252500",
          "173434.262500",
          "173436.270000",
          "173438.277500",
          "173440.285000",
          "173442.292500",
          "173444.302500",
          "173446.310000",
          "173448.317500",
          "173450.325000",
          "173452.335000",
          "173454.342500",
          "173456.350000",
          "173458.357500",
          "173500.365000",
          "173502.375000",
          "173504.382500",
          "173506.390000",
          "173508.397500",
          "173510.405000",
          "173512.415000",
          "173514.422500",
          "173516.430000",
          "173518.437500",
          "173520.447500",
          "173522.455000",
          "173524.462500",
          "173526.470000",
          "173528.477500",
          "173530.487500",
          "173532.495000",
          "173534.502500",
          "173536.510000",
          "173538.517500",
          "173540.527500",
          "173542.535000",
          "173544.542500",
          "173546.550000",
          "173548.560000",
          "173550.567500",
          "173552.575000",
          "173554.582500",
          "173556.590000",
          "173558.600000",
          "173600.607500",
          "173602.615000",
          "173604.622500",
          "173606.630000",
          "173608.640000",
          "173610.647500",
          "173612.655000",
          "173614.662500",
          "173616.670000",
          "173618.680000",
          "173620.687500",
          "173622.695000",
          "173624.702500",
          "173626.712500",
          "173628.720000",
          "173630.727500",
          "173632.735000",
          "173634.742500",
          "173636.752500",
          "173638.760000",
          "173640.767500",
          "173642.775000",
          "173644.782500",
          "173646.792500",
          "173648.800000",
          "173650.807500",
          "173652.815000",
          "173654.825000",
          "173656.832500",
          "173658.840000",
          "173700.847500",
          "173702.855000",
          "173704.865000",
          "173706.872500",
          "173708.880000",
          "173710.887500",
          "173712.895000",
          "173714.905000",
          "173716.912500",
          "173718.920000",
          "173720.927500",
          "173722.937500",
          "173724.945000",
          "173726.952500",
          "173728.960000",
          "173730.967500",
          "173732.977500",
          "173734.985000",
          "173736.992500",
          "173739.000000",
          "173741.007500",
          "173743.017500",
          "173745.025000",
          "173747.032500",
          "173749.040000",
          "173751.047500",
          "173753.057500",
          "173755.065000",
          "173757.072500",
          "173759.080000",
          "173801.090000",
          "173803.097500",
          "173805.105000",
          "173807.112500",
          "173809.120000",
          "173811.130000",
          "173813.137500",
          "173815.145000",
          "173817.152500",
          "173819.160000",
          "173821.170000",
          "173823.177500",
          "173825.185000",
          "173827.192500",
          "173829.202500",
          "173831.210000",
          "173833.217500",
          "173835.225000",
          "173837.232500",
          "173839.242500",
          "173841.250000",
          "173843.257500",
          "173845.265000",
          "173847.272500",
          "173849.282500",
          "173851.290000",
          "173853.297500",
          "173855.305000",
          "173857.315000",
          "173859.322500",
          "173901.330000",
          "173903.337500",
          "173905.345000",
          "173907.355000",
          "173909.362500",
          "173911.370000",
          "173913.377500",
          "173915.385000"
        ],
        "ContentTime": [
          "173435.687000",
          "173435.687000",
          "173435.687000",
          "173435.687000",
          "173435.687000",
          "173435.703000",
          "173435.703000",
          "173435.703000",
          "173435.703000",
          "173435.703000",
          "173435.703000",
          "173435.734000",
          "173435.734000",
          "173435.734000",
          "173435.734000",
          "173435.734000",
          "173435.750000",
          "173435.750000",
          "173435.750000",
          "173435.750000",
          "173435.750000",
          "173435.750000",
          "173435.765000",
          "173515.671000",
          "173515.671000",
          "173515.671000",
          "173515.687000",
          "173515.687000",
          "173515.687000",
          "173515.687000",
          "173515.687000",
          "173515.687000",
          "173515.703000",
          "173515.703000",
          "173515.703000",
          "173515.703000",
          "173515.703000",
          "173515.718000",
          "173515.734000",
          "173515.734000",
          "173515.734000",
          "173515.734000",
          "173515.750000",
          "173555.671000",
          "173555.671000",
          "173555.671000",
          "173555.687000",
          "173555.687000",
          "173555.687000",
          "173555.687000",
          "173555.687000",
          "173555.687000",
          "173555.687000",
          "173555.703000",
          "173555.703000",
          "173555.703000",
          "173555.703000",
          "173555.718000",
          "173555.734000",
          "173555.734000",
          "173555.734000",
          "173555.750000",
          "173555.750000",
          "173635.671000",
          "173635.671000",
          "173635.671000",
          "173635.671000",
          "173635.687000",
          "173635.687000",
          "173635.687000",
          "173635.687000",
          "173635.687000",
          "173635.687000",
          "173635.703000",
          "173635.703000",
          "173635.703000",
          "173635.703000",
          "173635.703000",
          "173635.718000",
          "173635.718000",
          "173635.718000",
          "173635.734000",
          "173635.734000",
          "173715.671000",
          "173715.671000",
          "173715.671000",
          "173715.687000",
          "173715.703000",
          "173715.703000",
          "173715.703000",
          "173715.703000",
          "173715.703000",
          "173715.703000",
          "173715.718000",
          "173715.718000",
          "173715.718000",
          "173715.718000",
          "173715.718000",
          "173715.750000",
          "173715.750000",
          "173715.750000",
          "173715.750000",
          "173715.765000",
          "173755.671000",
          "173755.671000",
          "173755.671000",
          "173755.671000",
          "173755.687000",
          "173755.687000",
          "173755.687000",
          "173755.703000",
          "173755.703000",
          "173755.703000",
          "173755.703000",
          "173755.703000",
          "173755.703000",
          "173755.703000",
          "173755.718000",
          "173755.718000",
          "173755.718000",
          "173755.718000",
          "173755.718000",
          "173755.718000",
          "173835.671000",
          "173835.671000",
          "173835.687000",
          "173835.687000",
          "173835.687000",
          "173835.687000",
          "173835.703000",
          "173835.703000",
          "173835.703000",
          "173835.703000",
          "173835.703000",
          "173835.718000",
          "173835.718000",
          "173835.718000",
          "173835.718000",
          "173835.734000",
          "173835.734000",
          "173835.734000",
          "173835.734000",
          "173835.734000",
          "173915.671000",
          "173915.671000",
          "173915.671000",
          "173915.671000",
          "173915.687000",
          "173915.687000",
          "173915.687000",
          "173915.687000",
          "173915.687000",
          "173915.687000",
          "173915.703000",
          "173915.703000",
          "173915.703000",
          "173915.703000",
          "173915.703000",
          "173915.703000",
          "173915.703000",
          "173915.718000",
          "173915.718000",
          "173915.718000",
          "173915.734000"
        ],
        "InstanceCreationTime": [
          "173435.687000",
          "173435.687000",
          "173435.687000",
          "173435.687000",
          "173435.687000",
          "173435.703000",
          "173435.703000",
          "173435.703000",
          "173435.703000",
          "173435.703000",
          "173435.703000",
          "173435.734000",
          "173435.734000",
          "173435.734000",
          "173435.734000",
          "173435.734000",
          "173435.750000",
          "173435.750000",
          "173435.750000",
          "173435.750000",
          "173435.750000",
          "173435.750000",
          "173435.765000",
          "173515.671000",
          "173515.671000",
          "173515.671000",
          "173515.687000",
          "173515.687000",
          "173515.687000",
          "173515.687000",
          "173515.687000",
          "173515.687000",
          "173515.703000",
          "173515.703000",
          "173515.703000",
          "173515.703000",
          "173515.703000",
          "173515.718000",
          "173515.734000",
          "173515.734000",
          "173515.734000",
          "173515.734000",
          "173515.750000",
          "173555.671000",
          "173555.671000",
          "173555.671000",
          "173555.687000",
          "173555.687000",
          "173555.687000",
          "173555.687000",
          "173555.687000",
          "173555.687000",
          "173555.687000",
          "173555.703000",
          "173555.703000",
          "173555.703000",
          "173555.703000",
          "173555.718000",
          "173555.734000",
          "173555.734000",
          "173555.734000",
          "173555.750000",
          "173555.750000",
          "173635.671000",
          "173635.671000",
          "173635.671000",
          "173635.671000",
          "173635.687000",
          "173635.687000",
          "173635.687000",
          "173635.687000",
          "173635.687000",
          "173635.687000",
          "173635.703000",
          "173635.703000",
          "173635.703000",
          "173635.703000",
          "173635.703000",
          "173635.718000",
          "173635.718000",
          "173635.718000",
          "173635.734000",
          "173635.734000",
          "173715.671000",
          "173715.671000",
          "173715.671000",
          "173715.687000",
          "173715.703000",
          "173715.703000",
          "173715.703000",
          "173715.703000",
          "173715.703000",
          "173715.703000",
          "173715.718000",
          "173715.718000",
          "173715.718000",
          "173715.718000",
          "173715.718000",
          "173715.750000",
          "173715.750000",
          "173715.750000",
          "173715.750000",
          "173715.765000",
          "173755.671000",
          "173755.671000",
          "173755.671000",
          "173755.671000",
          "173755.687000",
          "173755.687000",
          "173755.687000",
          "173755.703000",
          "173755.703000",
          "173755.703000",
          "173755.703000",
          "173755.703000",
          "173755.703000",
          "173755.703000",
          "173755.718000",
          "173755.718000",
          "173755.718000",
          "173755.718000",
          "173755.718000",
          "173755.718000",
          "173835.671000",
          "173835.671000",
          "173835.687000",
          "173835.687000",
          "173835.687000",
          "173835.687000",
          "173835.703000",
          "173835.703000",
          "173835.703000",
          "173835.703000",
          "173835.703000",
          "173835.718000",
          "173835.718000",
          "173835.718000",
          "173835.718000",
          "173835.734000",
          "173835.734000",
          "173835.734000",
          "173835.734000",
          "173835.734000",
          "173915.671000",
          "173915.671000",
          "173915.671000",
          "173915.671000",
          "173915.687000",
          "173915.687000",
          "173915.687000",
          "173915.687000",
          "173915.687000",
          "173915.687000",
          "173915.703000",
          "173915.703000",
          "173915.703000",
          "173915.703000",
          "173915.703000",
          "173915.703000",
          "173915.703000",
          "173915.718000",
          "173915.718000",
          "173915.718000",
          "173915.734000"
        ],
        "InstanceNumber": [
          1,
          2,
          3,
          4,
          5,
          6,
          7,
          8,
          9,
          10,
          11,
          12,
          13,
          14,
          15,
          16,
          17,
          18,
          19,
          20,
          21,
          22,
          23,
          24,
          25,
          26,
          27,
          28,
          29,
          30,
          31,
          32,
          33,
          34,
          35,
          36,
          37,
          38,
          39,
          40,
          41,
          42,
          43,
          44,
          45,
          46,
          47,
          48,
          49,
          50,
          51,
          52,
          53,
          54,
          55,
          56,
          57,
          58,
          59,
          60,
          61,
          62,
          63,
          64,
          65,
          66,
          67,
          68,
          69,
          70,
          71,
          72,
          73,
          74,
          75,
          76,
          77,
          78,
          79,
          80,
          81,
          82,
          83,
          84,
          85,
          86,
          87,
          88,
          89,
          90,
          91,
          92,
          93,
          94,
          95,
          96,
          97,
          98,
          99,
          100,
          101,
          102,
          103,
          104,
          105,
          106,
          107,
          108,
          109,
          110,
          111,
          112,
          113,
          114,
          115,
          116,
          117,
          118,
          119,
          120,
          121,
          122,
          123,
          124,
          125,
          126,
          127,
          128,
          129,
          130,
          131,
          132,
          133,
          134,
          135,
          136,
          137,
          138,
          139,
          140,
          141,
          142,
          143,
          144,
          145,
          146,
          147,
          148,
          149,
          150,
          151,
          152,
          153,
          154,
          155,
          156,
          157,
          158,
          159,
          160,
          161,
          162,
          163,
          164
        ],
        "WindowCenter": [
          944.0,
          945.0,
          944.0,
          944.0,
          944.0,
          945.0,
          944.0,
          943.0,
          943.0,
          944.0,
          944.0,
          944.0,
          944.0,
          944.0,
          944.0,
          945.0,
          945.0,
          945.0,
          944.0,
          943.0,
          943.0,
          944.0,
          944.0,
          945.0,
          944.0,
          944.0,
          944.0,
          945.0,
          945.0,
          944.0,
          944.0,
          944.0,
          944.0,
          945.0,
          944.0,
          945.0,
          945.0,
          945.0,
          945.0,
          944.0,
          943.0,
          944.0,
          945.0,
          945.0,
          944.0,
          944.0,
          945.0,
          945.0,
          945.0,
          946.0,
          944.0,
          944.0,
          943.0,
          943.0,
          944.0,
          944.0,
          944.0,
          944.0,
          944.0,
          945.0,
          945.0,
          944.0,
          944.0,
          945.0,
          944.0,
          945.0,
          946.0,
          946.0,
          945.0,
          945.0,
          946.0,
          946.0,
          944.0,
          944.0,
          945.0,
          944.0,
          942.0,
          941.0,
          942.0,
          943.0,
          943.0,
          943.0,
          944.0,
          943.0,
          944.0,
          944.0,
          944.0,
          944.0,
          944.0,
          945.0,
          945.0,
          943.0,
          943.0,
          944.0,
          944.0,
          945.0,
          944.0,
          944.0,
          945.0,
          944.0,
          943.0,
          944.0,
          944.0,
          945.0,
          945.0,
          945.0,
          944.0,
          944.0,
          944.0,
          945.0,
          944.0,
          944.0,
          944.0,
          943.0,
          944.0,
          945.0,
          945.0,
          945.0,
          944.0,
          945.0,
          944.0,
          944.0,
          944.0,
          944.0,
          945.0,
          945.0,
          945.0,
          945.0,
          945.0,
          944.0,
          944.0,
          945.0,
          944.0,
          944.0,
          944.0,
          944.0,
          944.0,
          944.0,
          944.0,
          943.0,
          943.0,
          944.0,
          944.0,
          945.0,
          945.0,
          944.0,
          944.0,
          945.0,
          945.0,
          944.0,
          945.0,
          945.0,
          945.0,
          944.0,
          945.0,
          946.0,
          945.0,
          943.0,
          944.0,
          944.0,
          944.0,
          943.0,
          945.0,
          945.0
        ],
        "WindowWidth": [
          2479.0,
          2477.0,
          2474.0,
          2476.0,
          2476.0,
          2477.0,
          2478.0,
          2476.0,
          2473.0,
          2474.0,
          2476.0,
          2476.0,
          2474.0,
          2473.0,
          2477.0,
          2483.0,
          2487.0,
          2482.0,
          2474.0,
          2469.0,
          2473.0,
          2479.0,
          2478.0,
          2473.0,
          2473.0,
          2475.0,
          2477.0,
          2476.0,
          2477.0,
          2477.0,
          2475.0,
          2475.0,
          2479.0,
          2478.0,
          2476.0,
          2479.0,
          2489.0,
          2492.0,
          2483.0,
          2475.0,
          2473.0,
          2480.0,
          2483.0,
          2482.0,
          2482.0,
          2484.0,
          2486.0,
          2482.0,
          2484.0,
          2482.0,
          2477.0,
          2476.0,
          2477.0,
          2477.0,
          2478.0,
          2483.0,
          2482.0,
          2476.0,
          2475.0,
          2478.0,
          2481.0,
          2477.0,
          2473.0,
          2476.0,
          2480.0,
          2483.0,
          2487.0,
          2487.0,
          2481.0,
          2480.0,
          2484.0,
          2485.0,
          2471.0,
          2474.0,
          2480.0,
          2466.0,
          2453.0,
          2452.0,
          2456.0,
          2462.0,
          2467.0,
          2468.0,
          2463.0,
          2462.0,
          2465.0,
          2471.0,
          2472.0,
          2471.0,
          2476.0,
          2480.0,
          2474.0,
          2469.0,
          2470.0,
          2475.0,
          2479.0,
          2479.0,
          2480.0,
          2483.0,
          2485.0,
          2483.0,
          2479.0,
          2477.0,
          2480.0,
          2482.0,
          2486.0,
          2487.0,
          2482.0,
          2476.0,
          2477.0,
          2482.0,
          2482.0,
          2475.0,
          2467.0,
          2473.0,
          2480.0,
          2479.0,
          2476.0,
          2474.0,
          2474.0,
          2475.0,
          2476.0,
          2476.0,
          2475.0,
          2477.0,
          2480.0,
          2480.0,
          2483.0,
          2487.0,
          2485.0,
          2477.0,
          2478.0,
          2482.0,
          2480.0,
          2477.0,
          2478.0,
          2479.0,
          2485.0,
          2485.0,
          2474.0,
          2464.0,
          2466.0,
