{
  "aor": 0.0011895731707317074,
  "aqi": 0.005618098292682926,
  "bids_meta": {
    "AcquisitionMatrixPE": 96,
    "AcquisitionNumber": 1,
    "AcquisitionTime": "17:00:22.297500",
    "BandwidthPerPixelPhaseEncode": 52.083,
    "BaseResolution": 96,
    "ConversionSoftware": "dcm2niix",
    "ConversionSoftwareVersion": "v1.0.20180622 GCC6.3.0",
    "DerivedVendorReportedEchoSpacing": 0.000600004,
    "DeviceSerialNumber": "18926",
    "DwellTime": 2.6e-06,
    "EchoTime": 0.025,
    "EffectiveEchoSpacing": 0.000200001,
    "FlipAngle": 50,
    "ImageOrientationPatientDICOM": [
      0.999992,
      0.00067012,
      0.00404905,
      2.11009e-10,
      0.98658,
      -0.16328
    ],
    "ImageType": [
      "ORIGINAL",
      "PRIMARY",
      "M",
      "ND",
      "ECHO",
      "00",
      "MOSAIC"
    ],
    "InPlanePhaseEncodingDirectionDICOM": "ROW",
    "InstitutionName": "NIMH",
    "InstitutionalDepartmentName": "Department",
    "MRAcquisitionType": "2D",
    "MagneticFieldStrength": 6.98,
    "Manufacturer": "Siemens",
    "ManufacturersModelName": "Investigational_Device_7T",
    "Modality": "MR",
    "ParallelReductionFactorInPlane": 3,
    "PartialFourier": 1,
    "PatientPosition": "HFS",
    "PercentPhaseFOV": 100,
    "PhaseEncodingDirection": "i",
    "PhaseEncodingSteps": 94,
    "PhaseResolution": 1,
    "PixelBandwidth": 2003,
    "ProcedureStepDescription": "UserProtocols_gonzalez",
    "ProtocolName": "NIH_EPI_2.0iso_TR2_Run04",
    "PulseSequenceDetails": "%CustomerSeq%_inati_nih_epi",
    "ReceiveCoilName": "32Ch_Head_7T",
    "ReconMatrixPE": 96,
    "RepetitionTime": 2,
    "SAR": 0.0888511,
    "ScanningSequence": "EP",
    "SequenceName": "epfid2d1_96",
    "SequenceVariant": "SK",
    "SeriesDescription": "NIH_EPI_2.0iso_TR2_Run04",
    "SeriesNumber": 8,
    "ShimSetting": [
      -65,
      250,
      1009,
      2159,
      -30,
      1067,
      303,
      -330
    ],
    "SliceThickness": 2,
    "SliceTiming": [
      1.005,
      0,
      1.0425,
      0.0375,
      1.08,
      0.075,
      1.1175,
      0.1125,
      1.1525,
      0.15,
      1.19,
      0.1875,
      1.2275,
      0.225,
      1.265,
      0.2625,
      1.3025,
      0.2975,
      1.34,
      0.335,
      1.3775,
      0.3725,
      1.415,
      0.41,
      1.45,
      0.4475,
      1.4875,
      0.485,
      1.525,
      0.5225,
      1.5625,
      0.56,
      1.6,
      0.595,
      1.6375,
      0.6325,
      1.675,
      0.67,
      1.7125,
      0.7075,
      1.7475,
      0.745,
      1.785,
      0.7825,
      1.8225,
      0.82,
      1.86,
      0.8575,
      1.8975,
      0.8925,
      1.935,
      0.93,
      1.9725,
      0.9675
    ],
    "SoftwareVersions": "syngo_MR_B17",
    "SpacingBetweenSlices": 2,
    "StationName": "FMRIFD7T",
    "TaskName": "FullFovAttentionTask",
    "TotalReadoutTime": 0.0190001,
    "TxRefAmp": 277,
    "dataset": "ds001555",
    "dcmmeta_affine": [
      [
        -1.9999831914901733,
        4.2201880878778297e-10,
        0.008208253420889378,
        95.76705169677734
      ],
      [
        -0.0013402394251897931,
        1.973159670829773,
        -0.32655632495880127,
        -60.41937255859375
      ],
      [
        0.008098097518086433,
        0.32655906677246094,
        1.9731431007385254,
        -53.714908599853516
      ],
      [
        0.0,
        0.0,
        0.0,
        1.0
      ]
    ],
    "dcmmeta_reorient_transform": [
      [
        0.0,
        -1.0,
        0.0,
        95.0
      ],
      [
        1.0,
        0.0,
        0.0,
        0.0
      ],
      [
        0.0,
        0.0,
        1.0,
        0.0
      ],
      [
        0.0,
        0.0,
        0.0,
        1.0
      ]
    ],
    "dcmmeta_shape": [
      96,
      96,
      54,
      164
    ],
    "dcmmeta_slice_dim": 2,
    "dcmmeta_version": 0.6,
    "global": {
      "const": {
        "AcquisitionMatrix": [
          0,
          96,
          96,
          0
        ],
        "AngioFlag": "N",
        "BitsAllocated": 16,
        "BitsStored": 12,
        "Columns": 768,
        "EchoNumbers": 1,
        "EchoTime": 25.0,
        "EchoTrainLength": 1,
        "FlipAngle": 50.0,
        "HighBit": 11,
        "ImageOrientationPatient": [
          0.99999157803662,
          0.00067011969073,
          0.00404904870684,
          2.110094e-10,
          0.98657984636313,
          -0.1632795356133
        ],
        "ImagePositionPatient": [
          -767.761392775,
          -790.46277663322,
          84.311089597242
        ],
        "ImageType": [
          "ORIGINAL",
          "PRIMARY",
          "M",
          "ND",
          "ECHO_00",
          "MOSAIC"
        ],
        "ImagedNucleus": "1H",
        "ImagingFrequency": 297.204992,
        "InPlanePhaseEncodingDirection": "ROW",
        "LargestImagePixelValue": 4095,
        "MRAcquisitionType": "2D",
        "MagneticFieldStrength": 6.98,
        "Manufacturer": "SIEMENS",
        "ManufacturerModelName": "Investigational_Device_7T",
        "Modality": "MR",
        "NumberOfAverages": 1.0,
        "NumberOfPhaseEncodingSteps": 94,
        "PercentPhaseFieldOfView": 100.0,
        "PercentSampling": 100.0,
        "PerformedProcedureStepStartTime": "162624.484000",
        "PhotometricInterpretation": "MONOCHROME2",
        "PixelBandwidth": 2003.0,
        "PixelRepresentation": 0,
        "PixelSpacing": [
          2.0,
          2.0
        ],
        "PositionReferenceIndicator": "",
        "ProtocolName": "NIH_EPI_2.0iso_TR2_Run04",
        "RepetitionTime": 2000.0,
        "Rows": 768,
        "SAR": 0.08885112147589,
        "SamplesPerPixel": 1,
        "ScanningSequence": "EP",
        "SequenceName": "epfid2d1_96",
        "SequenceVariant": "SK",
        "SeriesDescription": "NIH_EPI_2.0iso_TR2_Run04",
        "SeriesNumber": 8,
        "SliceLocation": -42.735396792406,
        "SliceThickness": 2.0,
        "SmallestImagePixelValue": 0,
        "SoftwareVersions": "syngo MR B17",
        "SpacingBetweenSlices": 2.0000000864935,
        "TransmitCoilName": "32Ch_Head_7T",
        "VariableFlipAngleFlag": "N",
        "WindowCenterWidthExplanation": "Algo1",
        "dBdt": 0.0
      },
      "slices": {}
    },
    "modality": "bold",
    "run_id": 5,
    "session_id": "02",
    "subject_id": "003",
    "task_id": "FullFovAttentionTask",
    "time": {
      "samples": {
        "AcquisitionNumber": [
          1,
          2,
          3,
          4,
          5,
          6,
          7,
          8,
          9,
          10,
          11,
          12,
          13,
          14,
          15,
          16,
          17,
          18,
          19,
          20,
          21,
          22,
          23,
          24,
          25,
          26,
          27,
          28,
          29,
          30,
          31,
          32,
          33,
          34,
          35,
          36,
          37,
          38,
          39,
          40,
          41,
          42,
          43,
          44,
          45,
          46,
          47,
          48,
          49,
          50,
          51,
          52,
          53,
          54,
          55,
          56,
          57,
          58,
          59,
          60,
          61,
          62,
          63,
          64,
          65,
          66,
          67,
          68,
          69,
          70,
          71,
          72,
          73,
          74,
          75,
          76,
          77,
          78,
          79,
          80,
          81,
          82,
          83,
          84,
          85,
          86,
          87,
          88,
          89,
          90,
          91,
          92,
          93,
          94,
          95,
          96,
          97,
          98,
          99,
          100,
          101,
          102,
          103,
          104,
          105,
          106,
          107,
          108,
          109,
          110,
          111,
          112,
          113,
          114,
          115,
          116,
          117,
          118,
          119,
          120,
          121,
          122,
          123,
          124,
          125,
          126,
          127,
          128,
          129,
          130,
          131,
          132,
          133,
          134,
          135,
          136,
          137,
          138,
          139,
          140,
          141,
          142,
          143,
          144,
          145,
          146,
          147,
          148,
          149,
          150,
          151,
          152,
          153,
          154,
          155,
          156,
          157,
          158,
          159,
          160,
          161,
          162,
          163,
          164
        ],
        "AcquisitionTime": [
          "170022.297500",
          "170026.312500",
          "170028.322500",
          "170030.330000",
          "170032.337500",
          "170034.345000",
          "170036.352500",
          "170038.362500",
          "170040.370000",
          "170042.377500",
          "170044.385000",
          "170046.395000",
          "170048.402500",
          "170050.410000",
          "170052.417500",
          "170054.425000",
          "170056.435000",
          "170058.442500",
          "170100.450000",
          "170102.457500",
          "170104.465000",
          "170106.475000",
          "170108.482500",
          "170110.490000",
          "170112.497500",
          "170114.507500",
          "170116.515000",
          "170118.522500",
          "170120.530000",
          "170122.537500",
          "170124.547500",
          "170126.555000",
          "170128.562500",
          "170130.570000",
          "170132.577500",
          "170134.587500",
          "170136.595000",
          "170138.602500",
          "170140.610000",
          "170142.620000",
          "170144.627500",
          "170146.635000",
          "170148.642500",
          "170150.650000",
          "170152.660000",
          "170154.667500",
          "170156.675000",
          "170158.682500",
          "170200.690000",
          "170202.700000",
          "170204.707500",
          "170206.715000",
          "170208.722500",
          "170210.730000",
          "170212.740000",
          "170214.747500",
          "170216.755000",
          "170218.762500",
          "170220.772500",
          "170222.780000",
          "170224.787500",
          "170226.795000",
          "170228.802500",
          "170230.812500",
          "170232.820000",
          "170234.827500",
          "170236.835000",
          "170238.842500",
          "170240.852500",
          "170242.860000",
          "170244.867500",
          "170246.875000",
          "170248.885000",
          "170250.892500",
          "170252.900000",
          "170254.907500",
          "170256.915000",
          "170258.925000",
          "170300.932500",
          "170302.940000",
          "170304.947500",
          "170306.955000",
          "170308.965000",
          "170310.972500",
          "170312.980000",
          "170314.987500",
          "170316.997500",
          "170319.005000",
          "170321.012500",
          "170323.020000",
          "170325.027500",
          "170327.037500",
          "170329.045000",
          "170331.052500",
          "170333.060000",
          "170335.067500",
          "170337.077500",
          "170339.085000",
          "170341.092500",
          "170343.100000",
          "170345.110000",
          "170347.117500",
          "170349.125000",
          "170351.132500",
          "170353.140000",
          "170355.150000",
          "170357.157500",
          "170359.165000",
          "170401.172500",
          "170403.180000",
          "170405.190000",
          "170407.197500",
          "170409.205000",
          "170411.212500",
          "170413.220000",
          "170415.230000",
          "170417.237500",
          "170419.245000",
          "170421.252500",
          "170423.262500",
          "170425.270000",
          "170427.277500",
          "170429.285000",
          "170431.292500",
          "170433.302500",
          "170435.310000",
          "170437.317500",
          "170439.325000",
          "170441.332500",
          "170443.342500",
          "170445.350000",
          "170447.357500",
          "170449.365000",
          "170451.375000",
          "170453.382500",
          "170455.390000",
          "170457.397500",
          "170459.405000",
          "170501.415000",
          "170503.422500",
          "170505.430000",
          "170507.437500",
          "170509.445000",
          "170511.455000",
          "170513.462500",
          "170515.470000",
          "170517.477500",
          "170519.487500",
          "170521.495000",
          "170523.502500",
          "170525.510000",
          "170527.517500",
          "170529.527500",
          "170531.535000",
          "170533.542500",
          "170535.550000",
          "170537.557500",
          "170539.567500",
          "170541.575000",
          "170543.582500",
          "170545.590000",
          "170547.597500",
          "170549.607500",
          "170551.615000"
        ],
        "ContentTime": [
          "170123.468000",
          "170123.484000",
          "170123.484000",
          "170123.484000",
          "170123.484000",
          "170123.484000",
          "170123.484000",
          "170123.484000",
          "170123.500000",
          "170123.500000",
          "170123.500000",
          "170123.500000",
          "170123.500000",
          "170123.500000",
          "170123.515000",
          "170123.515000",
          "170123.515000",
          "170123.515000",
          "170123.531000",
          "170123.531000",
          "170123.531000",
          "170123.531000",
          "170123.531000",
          "170123.531000",
          "170123.531000",
          "170123.546000",
          "170123.546000",
          "170123.546000",
          "170123.546000",
          "170203.468000",
          "170203.468000",
          "170203.484000",
          "170203.484000",
          "170203.484000",
          "170203.484000",
          "170203.484000",
          "170203.484000",
          "170203.500000",
          "170203.500000",
          "170203.500000",
          "170203.500000",
          "170203.500000",
          "170203.500000",
          "170203.500000",
          "170203.515000",
          "170203.515000",
          "170203.515000",
          "170203.515000",
          "170203.515000",
          "170243.468000",
          "170243.468000",
          "170243.468000",
          "170243.468000",
          "170243.468000",
          "170243.468000",
          "170243.484000",
          "170243.484000",
          "170243.484000",
          "170243.484000",
          "170243.484000",
          "170243.484000",
          "170243.484000",
          "170243.500000",
          "170243.500000",
          "170243.500000",
          "170243.500000",
          "170243.500000",
          "170243.500000",
          "170243.515000",
          "170323.468000",
          "170323.468000",
          "170323.468000",
          "170323.468000",
          "170323.484000",
          "170323.484000",
          "170323.484000",
          "170323.484000",
          "170323.484000",
          "170323.500000",
          "170323.500000",
          "170323.500000",
          "170323.500000",
          "170323.500000",
          "170323.515000",
          "170323.515000",
          "170323.515000",
          "170323.515000",
          "170323.515000",
          "170323.515000",
          "170403.468000",
          "170403.468000",
          "170403.468000",
          "170403.468000",
          "170403.468000",
          "170403.468000",
          "170403.484000",
          "170403.484000",
          "170403.484000",
          "170403.484000",
          "170403.484000",
          "170403.484000",
          "170403.500000",
          "170403.500000",
          "170403.500000",
          "170403.500000",
          "170403.500000",
          "170403.500000",
          "170403.515000",
          "170403.515000",
          "170443.468000",
          "170443.468000",
          "170443.468000",
          "170443.468000",
          "170443.468000",
          "170443.468000",
          "170443.484000",
          "170443.484000",
          "170443.484000",
          "170443.484000",
          "170443.500000",
          "170443.500000",
          "170443.500000",
          "170443.500000",
          "170443.500000",
          "170443.500000",
          "170443.500000",
          "170443.515000",
          "170443.515000",
          "170443.515000",
          "170523.468000",
          "170523.468000",
          "170523.468000",
          "170523.484000",
          "170523.484000",
          "170523.484000",
          "170523.484000",
          "170523.484000",
          "170523.484000",
          "170523.500000",
          "170523.500000",
          "170523.500000",
          "170523.500000",
          "170523.500000",
          "170523.500000",
          "170523.500000",
          "170523.515000",
          "170523.515000",
          "170523.515000",
          "170523.515000",
          "170552.406000",
          "170552.421000",
          "170552.421000",
          "170552.421000",
          "170552.421000",
          "170552.421000",
          "170552.421000",
          "170552.437000",
          "170552.437000",
          "170552.437000",
          "170552.437000",
          "170552.437000",
          "170552.437000",
          "170552.453000",
          "170552.453000"
        ],
        "InstanceCreationTime": [
          "170123.468000",
          "170123.484000",
          "170123.484000",
          "170123.484000",
          "170123.484000",
          "170123.484000",
          "170123.484000",
          "170123.484000",
          "170123.500000",
          "170123.500000",
          "170123.500000",
          "170123.500000",
          "170123.500000",
          "170123.500000",
          "170123.515000",
          "170123.515000",
          "170123.515000",
          "170123.515000",
          "170123.531000",
          "170123.531000",
          "170123.531000",
          "170123.531000",
          "170123.531000",
          "170123.531000",
          "170123.531000",
          "170123.546000",
          "170123.546000",
          "170123.546000",
          "170123.546000",
          "170203.468000",
          "170203.468000",
          "170203.484000",
          "170203.484000",
          "170203.484000",
          "170203.484000",
          "170203.484000",
          "170203.484000",
          "170203.500000",
          "170203.500000",
          "170203.500000",
          "170203.500000",
          "170203.500000",
          "170203.500000",
          "170203.500000",
          "170203.515000",
          "170203.515000",
          "170203.515000",
          "170203.515000",
          "170203.515000",
          "170243.468000",
          "170243.468000",
          "170243.468000",
          "170243.468000",
          "170243.468000",
          "170243.468000",
          "170243.484000",
          "170243.484000",
          "170243.484000",
          "170243.484000",
          "170243.484000",
          "170243.484000",
          "170243.484000",
          "170243.500000",
          "170243.500000",
          "170243.500000",
          "170243.500000",
          "170243.500000",
          "170243.500000",
          "170243.515000",
          "170323.468000",
          "170323.468000",
          "170323.468000",
          "170323.468000",
          "170323.484000",
          "170323.484000",
          "170323.484000",
          "170323.484000",
          "170323.484000",
          "170323.500000",
          "170323.500000",
          "170323.500000",
          "170323.500000",
          "170323.500000",
          "170323.515000",
          "170323.515000",
          "170323.515000",
          "170323.515000",
          "170323.515000",
          "170323.515000",
          "170403.468000",
          "170403.468000",
          "170403.468000",
          "170403.468000",
          "170403.468000",
          "170403.468000",
          "170403.484000",
          "170403.484000",
          "170403.484000",
          "170403.484000",
          "170403.484000",
          "170403.484000",
          "170403.500000",
          "170403.500000",
          "170403.500000",
          "170403.500000",
          "170403.500000",
          "170403.500000",
          "170403.515000",
          "170403.515000",
          "170443.468000",
          "170443.468000",
          "170443.468000",
          "170443.468000",
          "170443.468000",
          "170443.468000",
          "170443.484000",
          "170443.484000",
          "170443.484000",
          "170443.484000",
          "170443.500000",
          "170443.500000",
          "170443.500000",
          "170443.500000",
          "170443.500000",
          "170443.500000",
          "170443.500000",
          "170443.515000",
          "170443.515000",
          "170443.515000",
          "170523.468000",
          "170523.468000",
          "170523.468000",
          "170523.484000",
          "170523.484000",
          "170523.484000",
          "170523.484000",
          "170523.484000",
          "170523.484000",
          "170523.500000",
          "170523.500000",
          "170523.500000",
          "170523.500000",
          "170523.500000",
          "170523.500000",
          "170523.500000",
          "170523.515000",
          "170523.515000",
          "170523.515000",
          "170523.515000",
          "170552.406000",
          "170552.421000",
          "170552.421000",
          "170552.421000",
          "170552.421000",
          "170552.421000",
          "170552.421000",
          "170552.437000",
          "170552.437000",
          "170552.437000",
          "170552.437000",
          "170552.437000",
          "170552.437000",
          "170552.453000",
          "170552.453000"
        ],
        "InstanceNumber": [
          1,
          2,
          3,
          4,
          5,
          6,
          7,
          8,
          9,
          10,
          11,
          12,
          13,
          14,
          15,
          16,
          17,
          18,
          19,
          20,
          21,
          22,
          23,
          24,
          25,
          26,
          27,
          28,
          29,
          30,
          31,
          32,
          33,
          34,
          35,
          36,
          37,
          38,
          39,
          40,
          41,
          42,
          43,
          44,
          45,
          46,
          47,
          48,
          49,
          50,
          51,
          52,
          53,
          54,
          55,
          56,
          57,
          58,
          59,
          60,
          61,
          62,
          63,
          64,
          65,
          66,
          67,
          68,
          69,
          70,
          71,
          72,
          73,
          74,
          75,
          76,
          77,
          78,
          79,
          80,
          81,
          82,
          83,
          84,
          85,
          86,
          87,
          88,
          89,
          90,
          91,
          92,
          93,
          94,
          95,
          96,
          97,
          98,
          99,
          100,
          101,
          102,
          103,
          104,
          105,
          106,
          107,
          108,
          109,
          110,
          111,
          112,
          113,
          114,
          115,
          116,
          117,
          118,
          119,
          120,
          121,
          122,
          123,
          124,
          125,
          126,
          127,
          128,
          129,
          130,
          131,
          132,
          133,
          134,
          135,
          136,
          137,
          138,
          139,
          140,
          141,
          142,
          143,
          144,
          145,
          146,
          147,
          148,
          149,
          150,
          151,
          152,
          153,
          154,
          155,
          156,
          157,
          158,
          159,
          160,
          161,
          162,
          163,
          164
        ],
        "WindowCenter": [
          946.0,
          946.0,
          946.0,
          947.0,
          948.0,
          947.0,
          946.0,
          947.0,
          948.0,
          948.0,
          948.0,
          948.0,
          949.0,
          950.0,
          949.0,
          947.0,
          947.0,
          947.0,
          947.0,
          947.0,
          946.0,
          947.0,
          947.0,
          947.0,
          946.0,
          946.0,
          945.0,
          946.0,
          946.0,
          946.0,
          946.0,
          947.0,
          947.0,
          947.0,
          947.0,
          947.0,
          947.0,
          946.0,
          945.0,
          946.0,
          946.0,
          946.0,
          945.0,
          946.0,
          946.0,
          946.0,
          946.0,
          945.0,
          945.0,
          946.0,
          946.0,
          946.0,
          945.0,
          946.0,
          947.0,
          945.0,
          945.0,
          946.0,
          946.0,
          945.0,
          946.0,
          946.0,
          945.0,
          944.0,
          945.0,
          946.0,
          946.0,
          946.0,
          945.0,
          945.0,
          946.0,
          946.0,
          946.0,
          946.0,
          946.0,
          946.0,
          947.0,
          947.0,
          947.0,
          946.0,
          945.0,
          945.0,
          945.0,
          945.0,
          945.0,
          947.0,
          947.0,
          947.0,
          946.0,
          946.0,
          947.0,
          947.0,
          947.0,
          947.0,
          947.0,
          946.0,
          947.0,
          947.0,
          945.0,
          945.0,
          945.0,
          946.0,
          946.0,
          945.0,
          946.0,
          946.0,
          946.0,
          946.0,
          947.0,
          947.0,
          946.0,
          945.0,
          945.0,
          946.0,
          947.0,
          947.0,
          946.0,
          946.0,
          945.0,
          946.0,
          946.0,
          946.0,
          946.0,
          946.0,
          946.0,
          946.0,
          946.0,
          947.0,
          947.0,
          947.0,
          947.0,
          946.0,
          946.0,
          945.0,
          945.0,
          945.0,
          945.0,
          946.0,
          947.0,
          946.0,
          945.0,
          945.0,
          945.0,
          946.0,
          945.0,
          945.0,
          944.0,
          944.0,
          946.0,
          946.0,
          946.0,
          945.0,
          945.0,
          946.0,
          947.0,
          946.0,
          945.0,
          945.0,
          945.0,
          945.0,
          946.0,
          946.0,
          946.0,
          946.0
        ],
        "WindowWidth": [
          2498.0,
          2499.0,
          2504.0,
          2514.0,
          2514.0,
          2505.0,
          2503.0,
          2509.0,
          2510.0,
          2512.0,
          2516.0,
          2515.0,
          2518.0,
          2520.0,
          2515.0,
          2505.0,
          2506.0,
          2511.0,
          2508.0,
          2502.0,
          2500.0,
          2499.0,
          2500.0,
          2503.0,
          2501.0,
          2496.0,
          2495.0,
          2495.0,
          2496.0,
          2498.0,
          2500.0,
          2501.0,
          2501.0,
          2502.0,
          2503.0,
          2502.0,
          2504.0,
          2505.0,
          2503.0,
          2498.0,
          2499.0,
          2499.0,
          2496.0,
          2496.0,
          2501.0,
          2500.0,
          2499.0,
          2496.0,
          2491.0,
          2490.0,
          2499.0,
          2498.0,
          2496.0,
          2496.0,
          2493.0,
          2490.0,
          2493.0,
          2494.0,
          2491.0,
          2498.0,
          2501.0,
          2499.0,
          2488.0,
          2485.0,
          2489.0,
          2494.0,
          2496.0,
          2495.0,
          2492.0,
          2492.0,
          2497.0,
          2502.0,
          2500.0,
          2495.0,
          2497.0,
          2501.0,
          2507.0,
          2506.0,
          2497.0,
          2493.0,
          2495.0,
          2492.0,
          2489.0,
          2489.0,
          2493.0,
          2495.0,
          2499.0,
          2499.0,
          2497.0,
          2499.0,
          2502.0,
          2503.0,
          2506.0,
          2504.0,
          2500.0,
          2501.0,
          2506.0,
          2504.0,
          2496.0,
          2494.0,
          2500.0,
          2503.0,
          2498.0,
          2497.0,
          2498.0,
          2500.0,
          2502.0,
          2506.0,
          2504.0,
          2497.0,
          2495.0,
          2496.0,
          2499.0,
          2502.0,
          2504.0,
          2503.0,
          2498.0,
          2495.0,
          2497.0,
          2498.0,
          2497.0,
          2497.0,
          2497.0,
          2500.0,
          2498.0,
          2498.0,
          2502.0,
          2504.0,
          2509.0,
          2513.0,
          2509.0,
          2501.0,
          2498.0,
          2498.0,
          2494.0,
          2488.0,
          2494.0,
          2507.0,
          2504.0,
          2492.0,
          2488.0,
