{
  "aor": 0.0010990243902439024,
  "aqi": 0.0050842302439024385,
  "bids_meta": {
    "AcquisitionMatrixPE": 96,
    "AcquisitionNumber": 1,
    "AcquisitionTime": "16:46:15.517500",
    "BandwidthPerPixelPhaseEncode": 52.083,
    "BaseResolution": 96,
    "ConversionSoftware": "dcm2niix",
    "ConversionSoftwareVersion": "v1.0.20180622 GCC6.3.0",
    "DerivedVendorReportedEchoSpacing": 0.000600004,
    "DeviceSerialNumber": "18926",
    "DwellTime": 2.6e-06,
    "EchoTime": 0.025,
    "EffectiveEchoSpacing": 0.000200001,
    "FlipAngle": 50,
    "ImageOrientationPatientDICOM": [
      0.999992,
      0.00067012,
      0.00404905,
      2.11009e-10,
      0.98658,
      -0.16328
    ],
    "ImageType": [
      "ORIGINAL",
      "PRIMARY",
      "M",
      "ND",
      "ECHO",
      "00",
      "MOSAIC"
    ],
    "InPlanePhaseEncodingDirectionDICOM": "ROW",
    "InstitutionName": "NIMH",
    "InstitutionalDepartmentName": "Department",
    "MRAcquisitionType": "2D",
    "MagneticFieldStrength": 6.98,
    "Manufacturer": "Siemens",
    "ManufacturersModelName": "Investigational_Device_7T",
    "Modality": "MR",
    "ParallelReductionFactorInPlane": 3,
    "PartialFourier": 1,
    "PatientPosition": "HFS",
    "PercentPhaseFOV": 100,
    "PhaseEncodingDirection": "i",
    "PhaseEncodingSteps": 94,
    "PhaseResolution": 1,
    "PixelBandwidth": 2003,
    "ProcedureStepDescription": "UserProtocols_gonzalez",
    "ProtocolName": "NIH_EPI_2.0iso_TR2_Run02",
    "PulseSequenceDetails": "%CustomerSeq%_inati_nih_epi",
    "ReceiveCoilName": "32Ch_Head_7T",
    "ReconMatrixPE": 96,
    "RepetitionTime": 2,
    "SAR": 0.0888511,
    "ScanningSequence": "EP",
    "SequenceName": "epfid2d1_96",
    "SequenceVariant": "SK",
    "SeriesDescription": "NIH_EPI_2.0iso_TR2_Run02",
    "SeriesNumber": 6,
    "ShimSetting": [
      -65,
      250,
      1009,
      2159,
      -30,
      1067,
      303,
      -330
    ],
    "SliceThickness": 2,
    "SliceTiming": [
      1.005,
      0,
      1.0425,
      0.0375,
      1.08,
      0.075,
      1.115,
      0.1125,
      1.1525,
      0.15,
      1.19,
      0.1875,
      1.2275,
      0.2225,
      1.265,
      0.26,
      1.3025,
      0.2975,
      1.34,
      0.335,
      1.3775,
      0.3725,
      1.4125,
      0.41,
      1.45,
      0.4475,
      1.4875,
      0.485,
      1.525,
      0.52,
      1.5625,
      0.5575,
      1.6,
      0.595,
      1.6375,
      0.6325,
      1.6725,
      0.67,
      1.71,
      0.7075,
      1.7475,
      0.745,
      1.785,
      0.7825,
      1.8225,
      0.8175,
      1.86,
      0.855,
      1.8975,
      0.8925,
      1.935,
      0.93,
      1.97,
      0.9675
    ],
    "SoftwareVersions": "syngo_MR_B17",
    "SpacingBetweenSlices": 2,
    "StationName": "FMRIFD7T",
    "TaskName": "FullFovAttentionTask",
    "TotalReadoutTime": 0.0190001,
    "TxRefAmp": 277,
    "dataset": "ds001555",
    "dcmmeta_affine": [
      [
        -1.9999831914901733,
        4.2201880878778297e-10,
        0.008208253420889378,
        95.76705169677734
      ],
      [
        -0.0013402394251897931,
        1.973159670829773,
        -0.32655632495880127,
        -60.41937255859375
      ],
      [
        0.008098097518086433,
        0.32655906677246094,
        1.9731431007385254,
        -53.714908599853516
      ],
      [
        0.0,
        0.0,
        0.0,
        1.0
      ]
    ],
    "dcmmeta_reorient_transform": [
      [
        0.0,
        -1.0,
        0.0,
        95.0
      ],
      [
        1.0,
        0.0,
        0.0,
        0.0
      ],
      [
        0.0,
        0.0,
        1.0,
        0.0
      ],
      [
        0.0,
        0.0,
        0.0,
        1.0
      ]
    ],
    "dcmmeta_shape": [
      96,
      96,
      54,
      164
    ],
    "dcmmeta_slice_dim": 2,
    "dcmmeta_version": 0.6,
    "global": {
      "const": {
        "AcquisitionMatrix": [
          0,
          96,
          96,
          0
        ],
        "AngioFlag": "N",
        "BitsAllocated": 16,
        "BitsStored": 12,
        "Columns": 768,
        "EchoNumbers": 1,
        "EchoTime": 25.0,
        "EchoTrainLength": 1,
        "FlipAngle": 50.0,
        "HighBit": 11,
        "ImageOrientationPatient": [
          0.99999157803662,
          0.00067011969073,
          0.00404904870684,
          2.110094e-10,
          0.98657984636313,
          -0.1632795356133
        ],
        "ImagePositionPatient": [
          -767.761392775,
          -790.46277663322,
          84.311089597242
        ],
        "ImageType": [
          "ORIGINAL",
          "PRIMARY",
          "M",
          "ND",
          "ECHO_00",
          "MOSAIC"
        ],
        "ImagedNucleus": "1H",
        "ImagingFrequency": 297.204931,
        "InPlanePhaseEncodingDirection": "ROW",
        "LargestImagePixelValue": 4095,
        "MRAcquisitionType": "2D",
        "MagneticFieldStrength": 6.98,
        "Manufacturer": "SIEMENS",
        "ManufacturerModelName": "Investigational_Device_7T",
        "Modality": "MR",
        "NumberOfAverages": 1.0,
        "NumberOfPhaseEncodingSteps": 94,
        "PercentPhaseFieldOfView": 100.0,
        "PercentSampling": 100.0,
        "PerformedProcedureStepStartTime": "162624.484000",
        "PhotometricInterpretation": "MONOCHROME2",
        "PixelBandwidth": 2003.0,
        "PixelRepresentation": 0,
        "PixelSpacing": [
          2.0,
          2.0
        ],
        "PositionReferenceIndicator": "",
        "ProtocolName": "NIH_EPI_2.0iso_TR2_Run02",
        "RepetitionTime": 2000.0,
        "Rows": 768,
        "SAR": 0.08885112147589,
        "SamplesPerPixel": 1,
        "ScanningSequence": "EP",
        "SequenceName": "epfid2d1_96",
        "SequenceVariant": "SK",
        "SeriesDescription": "NIH_EPI_2.0iso_TR2_Run02",
        "SeriesNumber": 6,
        "SliceLocation": -42.735396792406,
        "SliceThickness": 2.0,
        "SmallestImagePixelValue": 0,
        "SoftwareVersions": "syngo MR B17",
        "SpacingBetweenSlices": 2.0000000864935,
        "TransmitCoilName": "32Ch_Head_7T",
        "VariableFlipAngleFlag": "N",
        "WindowCenterWidthExplanation": "Algo1",
        "dBdt": 0.0
      },
      "slices": {}
    },
    "modality": "bold",
    "run_id": 3,
    "session_id": "02",
    "subject_id": "003",
    "task_id": "FullFovAttentionTask",
    "time": {
      "samples": {
        "AcquisitionNumber": [
          1,
          2,
          3,
          4,
          5,
          6,
          7,
          8,
          9,
          10,
          11,
          12,
          13,
          14,
          15,
          16,
          17,
          18,
          19,
          20,
          21,
          22,
          23,
          24,
          25,
          26,
          27,
          28,
          29,
          30,
          31,
          32,
          33,
          34,
          35,
          36,
          37,
          38,
          39,
          40,
          41,
          42,
          43,
          44,
          45,
          46,
          47,
          48,
          49,
          50,
          51,
          52,
          53,
          54,
          55,
          56,
          57,
          58,
          59,
          60,
          61,
          62,
          63,
          64,
          65,
          66,
          67,
          68,
          69,
          70,
          71,
          72,
          73,
          74,
          75,
          76,
          77,
          78,
          79,
          80,
          81,
          82,
          83,
          84,
          85,
          86,
          87,
          88,
          89,
          90,
          91,
          92,
          93,
          94,
          95,
          96,
          97,
          98,
          99,
          100,
          101,
          102,
          103,
          104,
          105,
          106,
          107,
          108,
          109,
          110,
          111,
          112,
          113,
          114,
          115,
          116,
          117,
          118,
          119,
          120,
          121,
          122,
          123,
          124,
          125,
          126,
          127,
          128,
          129,
          130,
          131,
          132,
          133,
          134,
          135,
          136,
          137,
          138,
          139,
          140,
          141,
          142,
          143,
          144,
          145,
          146,
          147,
          148,
          149,
          150,
          151,
          152,
          153,
          154,
          155,
          156,
          157,
          158,
          159,
          160,
          161,
          162,
          163,
          164
        ],
        "AcquisitionTime": [
          "164615.517500",
          "164619.532500",
          "164621.540000",
          "164623.550000",
          "164625.557500",
          "164627.565000",
          "164629.572500",
          "164631.580000",
          "164633.590000",
          "164635.597500",
          "164637.605000",
          "164639.612500",
          "164641.622500",
          "164643.630000",
          "164645.637500",
          "164647.645000",
          "164649.652500",
          "164651.662500",
          "164653.670000",
          "164655.677500",
          "164657.685000",
          "164659.692500",
          "164701.702500",
          "164703.710000",
          "164705.717500",
          "164707.725000",
          "164709.735000",
          "164711.742500",
          "164713.750000",
          "164715.757500",
          "164717.765000",
          "164719.775000",
          "164721.782500",
          "164723.790000",
          "164725.797500",
          "164727.805000",
          "164729.815000",
          "164731.822500",
          "164733.830000",
          "164735.837500",
          "164737.847500",
          "164739.855000",
          "164741.862500",
          "164743.870000",
          "164745.877500",
          "164747.887500",
          "164749.895000",
          "164751.902500",
          "164753.910000",
          "164755.917500",
          "164757.927500",
          "164759.935000",
          "164801.942500",
          "164803.950000",
          "164805.957500",
          "164807.967500",
          "164809.975000",
          "164811.982500",
          "164813.990000",
          "164816.000000",
          "164818.007500",
          "164820.015000",
          "164822.022500",
          "164824.030000",
          "164826.040000",
          "164828.047500",
          "164830.055000",
          "164832.062500",
          "164834.070000",
          "164836.080000",
          "164838.087500",
          "164840.095000",
          "164842.102500",
          "164844.112500",
          "164846.120000",
          "164848.127500",
          "164850.135000",
          "164852.142500",
          "164854.152500",
          "164856.160000",
          "164858.167500",
          "164900.175000",
          "164902.182500",
          "164904.192500",
          "164906.200000",
          "164908.207500",
          "164910.215000",
          "164912.225000",
          "164914.232500",
          "164916.240000",
          "164918.247500",
          "164920.255000",
          "164922.265000",
          "164924.272500",
          "164926.280000",
          "164928.287500",
          "164930.295000",
          "164932.305000",
          "164934.312500",
          "164936.320000",
          "164938.327500",
          "164940.335000",
          "164942.345000",
          "164944.352500",
          "164946.360000",
          "164948.367500",
          "164950.377500",
          "164952.385000",
          "164954.392500",
          "164956.400000",
          "164958.407500",
          "165000.417500",
          "165002.425000",
          "165004.432500",
          "165006.440000",
          "165008.447500",
          "165010.457500",
          "165012.465000",
          "165014.472500",
          "165016.480000",
          "165018.490000",
          "165020.497500",
          "165022.505000",
          "165024.512500",
          "165026.520000",
          "165028.530000",
          "165030.537500",
          "165032.545000",
          "165034.552500",
          "165036.560000",
          "165038.570000",
          "165040.577500",
          "165042.585000",
          "165044.592500",
          "165046.602500",
          "165048.610000",
          "165050.617500",
          "165052.625000",
          "165054.632500",
          "165056.642500",
          "165058.650000",
          "165100.657500",
          "165102.665000",
          "165104.672500",
          "165106.682500",
          "165108.690000",
          "165110.697500",
          "165112.705000",
          "165114.715000",
          "165116.722500",
          "165118.730000",
          "165120.737500",
          "165122.745000",
          "165124.755000",
          "165126.762500",
          "165128.770000",
          "165130.777500",
          "165132.785000",
          "165134.795000",
          "165136.802500",
          "165138.810000",
          "165140.817500",
          "165142.825000",
          "165144.835000"
        ],
        "ContentTime": [
          "164715.656000",
          "164715.656000",
          "164715.671000",
          "164715.671000",
          "164715.671000",
          "164715.671000",
          "164715.671000",
          "164715.671000",
          "164715.671000",
          "164715.687000",
          "164715.687000",
          "164715.687000",
          "164715.687000",
          "164715.703000",
          "164715.703000",
          "164715.703000",
          "164715.703000",
          "164715.703000",
          "164715.703000",
          "164715.718000",
          "164715.718000",
          "164715.718000",
          "164715.718000",
          "164715.718000",
          "164715.718000",
          "164715.734000",
          "164715.734000",
          "164715.734000",
          "164715.734000",
          "164755.656000",
          "164755.656000",
          "164755.656000",
          "164755.671000",
          "164755.671000",
          "164755.671000",
          "164755.671000",
          "164755.671000",
          "164755.671000",
          "164755.687000",
          "164755.687000",
          "164755.687000",
          "164755.687000",
          "164755.687000",
          "164755.687000",
          "164755.687000",
          "164755.703000",
          "164755.703000",
          "164755.703000",
          "164755.703000",
          "164835.656000",
          "164835.656000",
          "164835.656000",
          "164835.671000",
          "164835.671000",
          "164835.671000",
          "164835.671000",
          "164835.671000",
          "164835.687000",
          "164835.687000",
          "164835.687000",
          "164835.687000",
          "164835.687000",
          "164835.687000",
          "164835.687000",
          "164835.703000",
          "164835.703000",
          "164835.703000",
          "164835.703000",
          "164835.703000",
          "164915.656000",
          "164915.656000",
          "164915.656000",
          "164915.656000",
          "164915.656000",
          "164915.656000",
          "164915.671000",
          "164915.671000",
          "164915.671000",
          "164915.671000",
          "164915.671000",
          "164915.671000",
          "164915.687000",
          "164915.687000",
          "164915.687000",
          "164915.687000",
          "164915.687000",
          "164915.687000",
          "164915.687000",
          "164915.703000",
          "164955.656000",
          "164955.656000",
          "164955.656000",
          "164955.656000",
          "164955.656000",
          "164955.656000",
          "164955.656000",
          "164955.671000",
          "164955.671000",
          "164955.671000",
          "164955.671000",
          "164955.671000",
          "164955.671000",
          "164955.687000",
          "164955.687000",
          "164955.687000",
          "164955.687000",
          "164955.687000",
          "164955.703000",
          "164955.703000",
          "165035.656000",
          "165035.656000",
          "165035.656000",
          "165035.656000",
          "165035.656000",
          "165035.656000",
          "165035.656000",
          "165035.671000",
          "165035.671000",
          "165035.671000",
          "165035.671000",
          "165035.671000",
          "165035.671000",
          "165035.687000",
          "165035.687000",
          "165035.687000",
          "165035.687000",
          "165035.687000",
          "165035.687000",
          "165035.687000",
          "165115.656000",
          "165115.656000",
          "165115.656000",
          "165115.656000",
          "165115.656000",
          "165115.656000",
          "165115.656000",
          "165115.671000",
          "165115.671000",
          "165115.671000",
          "165115.671000",
          "165115.671000",
          "165115.687000",
          "165115.687000",
          "165115.687000",
          "165115.687000",
          "165115.687000",
          "165115.687000",
          "165115.687000",
          "165115.703000",
          "165145.468000",
          "165145.484000",
          "165145.484000",
          "165145.484000",
          "165145.484000",
          "165145.484000",
          "165145.484000",
          "165145.484000",
          "165145.500000",
          "165145.500000",
          "165145.500000",
          "165145.500000",
          "165145.500000",
          "165145.500000",
          "165145.500000"
        ],
        "InstanceCreationTime": [
          "164715.656000",
          "164715.656000",
          "164715.671000",
          "164715.671000",
          "164715.671000",
          "164715.671000",
          "164715.671000",
          "164715.671000",
          "164715.671000",
          "164715.687000",
          "164715.687000",
          "164715.687000",
          "164715.687000",
          "164715.703000",
          "164715.703000",
          "164715.703000",
          "164715.703000",
          "164715.703000",
          "164715.703000",
          "164715.718000",
          "164715.718000",
          "164715.718000",
          "164715.718000",
          "164715.718000",
          "164715.718000",
          "164715.734000",
          "164715.734000",
          "164715.734000",
          "164715.734000",
          "164755.656000",
          "164755.656000",
          "164755.656000",
          "164755.671000",
          "164755.671000",
          "164755.671000",
          "164755.671000",
          "164755.671000",
          "164755.671000",
          "164755.687000",
          "164755.687000",
          "164755.687000",
          "164755.687000",
          "164755.687000",
          "164755.687000",
          "164755.687000",
          "164755.703000",
          "164755.703000",
          "164755.703000",
          "164755.703000",
          "164835.656000",
          "164835.656000",
          "164835.656000",
          "164835.671000",
          "164835.671000",
          "164835.671000",
          "164835.671000",
          "164835.671000",
          "164835.687000",
          "164835.687000",
          "164835.687000",
          "164835.687000",
          "164835.687000",
          "164835.687000",
          "164835.687000",
          "164835.703000",
          "164835.703000",
          "164835.703000",
          "164835.703000",
          "164835.703000",
          "164915.656000",
          "164915.656000",
          "164915.656000",
          "164915.656000",
          "164915.656000",
          "164915.656000",
          "164915.671000",
          "164915.671000",
          "164915.671000",
          "164915.671000",
          "164915.671000",
          "164915.671000",
          "164915.687000",
          "164915.687000",
          "164915.687000",
          "164915.687000",
          "164915.687000",
          "164915.687000",
          "164915.687000",
          "164915.703000",
          "164955.656000",
          "164955.656000",
          "164955.656000",
          "164955.656000",
          "164955.656000",
          "164955.656000",
          "164955.656000",
          "164955.671000",
          "164955.671000",
          "164955.671000",
          "164955.671000",
          "164955.671000",
          "164955.671000",
          "164955.687000",
          "164955.687000",
          "164955.687000",
          "164955.687000",
          "164955.687000",
          "164955.703000",
          "164955.703000",
          "165035.656000",
          "165035.656000",
          "165035.656000",
          "165035.656000",
          "165035.656000",
          "165035.656000",
          "165035.656000",
          "165035.671000",
          "165035.671000",
          "165035.671000",
          "165035.671000",
          "165035.671000",
          "165035.671000",
          "165035.687000",
          "165035.687000",
          "165035.687000",
          "165035.687000",
          "165035.687000",
          "165035.687000",
          "165035.687000",
          "165115.656000",
          "165115.656000",
          "165115.656000",
          "165115.656000",
          "165115.656000",
          "165115.656000",
          "165115.656000",
          "165115.671000",
          "165115.671000",
          "165115.671000",
          "165115.671000",
          "165115.671000",
          "165115.687000",
          "165115.687000",
          "165115.687000",
          "165115.687000",
          "165115.687000",
          "165115.687000",
          "165115.687000",
          "165115.703000",
          "165145.468000",
          "165145.484000",
          "165145.484000",
          "165145.484000",
          "165145.484000",
          "165145.484000",
          "165145.484000",
          "165145.484000",
          "165145.500000",
          "165145.500000",
          "165145.500000",
          "165145.500000",
          "165145.500000",
          "165145.500000",
          "165145.500000"
        ],
        "InstanceNumber": [
          1,
          2,
          3,
          4,
          5,
          6,
          7,
          8,
          9,
          10,
          11,
          12,
          13,
          14,
          15,
          16,
          17,
          18,
          19,
          20,
          21,
          22,
          23,
          24,
          25,
          26,
          27,
          28,
          29,
          30,
          31,
          32,
          33,
          34,
          35,
          36,
          37,
          38,
          39,
          40,
          41,
          42,
          43,
          44,
          45,
          46,
          47,
          48,
          49,
          50,
          51,
          52,
          53,
          54,
          55,
          56,
          57,
          58,
          59,
          60,
          61,
          62,
          63,
          64,
          65,
          66,
          67,
          68,
          69,
          70,
          71,
          72,
          73,
          74,
          75,
          76,
          77,
          78,
          79,
          80,
          81,
          82,
          83,
          84,
          85,
          86,
          87,
          88,
          89,
          90,
          91,
          92,
          93,
          94,
          95,
          96,
          97,
          98,
          99,
          100,
          101,
          102,
          103,
          104,
          105,
          106,
          107,
          108,
          109,
          110,
          111,
          112,
          113,
          114,
          115,
          116,
          117,
          118,
          119,
          120,
          121,
          122,
          123,
          124,
          125,
          126,
          127,
          128,
          129,
          130,
          131,
          132,
          133,
          134,
          135,
          136,
          137,
          138,
          139,
          140,
          141,
          142,
          143,
          144,
          145,
          146,
          147,
          148,
          149,
          150,
          151,
          152,
          153,
          154,
          155,
          156,
          157,
          158,
          159,
          160,
          161,
          162,
          163,
          164
        ],
        "WindowCenter": [
          952.0,
          952.0,
          951.0,
          951.0,
          950.0,
          951.0,
          952.0,
          951.0,
          951.0,
          950.0,
          950.0,
          951.0,
          951.0,
          951.0,
          950.0,
          950.0,
          951.0,
          951.0,
          951.0,
          951.0,
          950.0,
          949.0,
          948.0,
          948.0,
          949.0,
          950.0,
          951.0,
          951.0,
          952.0,
          949.0,
          950.0,
          951.0,
          951.0,
          951.0,
          950.0,
          950.0,
          950.0,
          951.0,
          952.0,
          952.0,
          951.0,
          952.0,
          951.0,
          951.0,
          952.0,
          952.0,
          952.0,
          953.0,
          953.0,
          951.0,
          950.0,
          950.0,
          952.0,
          952.0,
          950.0,
          948.0,
          949.0,
          950.0,
          952.0,
          951.0,
          950.0,
          950.0,
          951.0,
          952.0,
          953.0,
          954.0,
          953.0,
          952.0,
          953.0,
          952.0,
          952.0,
          952.0,
          952.0,
          952.0,
          952.0,
          952.0,
          951.0,
          952.0,
          953.0,
          952.0,
          951.0,
          951.0,
          951.0,
          951.0,
          952.0,
          952.0,
          951.0,
          951.0,
          951.0,
          952.0,
          952.0,
          951.0,
          950.0,
          950.0,
          948.0,
          948.0,
          949.0,
          950.0,
          950.0,
          950.0,
          951.0,
          950.0,
          951.0,
          950.0,
          950.0,
          951.0,
          951.0,
          951.0,
          950.0,
          950.0,
          950.0,
          950.0,
          950.0,
          950.0,
          949.0,
          950.0,
          951.0,
          951.0,
          950.0,
          951.0,
          950.0,
          951.0,
          951.0,
          950.0,
          950.0,
          949.0,
          949.0,
          950.0,
          949.0,
          949.0,
          948.0,
          949.0,
          949.0,
          948.0,
          948.0,
          948.0,
          948.0,
          950.0,
          950.0,
          950.0,
          949.0,
          950.0,
          951.0,
          950.0,
          950.0,
          950.0,
          949.0,
          949.0,
          948.0,
          948.0,
          949.0,
          948.0,
          949.0,
          949.0,
          949.0,
          950.0,
          949.0,
          949.0,
          949.0,
          949.0,
          951.0,
          951.0,
          950.0,
          951.0
        ],
        "WindowWidth": [
          2514.0,
          2518.0,
          2519.0,
          2514.0,
          2513.0,
          2517.0,
          2523.0,
          2521.0,
          2520.0,
          2517.0,
          2515.0,
          2518.0,
          2521.0,
          2521.0,
          2518.0,
          2515.0,
          2519.0,
          2533.0,
          2524.0,
          2512.0,
          2506.0,
          2500.0,
          2496.0,
          2503.0,
          2507.0,
          2510.0,
          2515.0,
          2516.0,
          2511.0,
          2512.0,
          2519.0,
          2521.0,
          2523.0,
          2519.0,
          2513.0,
          2513.0,
          2521.0,
          2525.0,
          2530.0,
          2532.0,
          2528.0,
          2528.0,
          2534.0,
          2533.0,
          2532.0,
          2532.0,
          2536.0,
          2538.0,
          2537.0,
          2522.0,
          2515.0,
          2522.0,
          2533.0,
          2525.0,
          2513.0,
          2509.0,
          2512.0,
          2519.0,
          2522.0,
          2518.0,
          2514.0,
          2514.0,
          2517.0,
          2523.0,
          2530.0,
          2529.0,
          2527.0,
          2528.0,
          2528.0,
          2528.0,
          2528.0,
          2529.0,
          2530.0,
          2532.0,
          2530.0,
          2527.0,
          2527.0,
          2528.0,
          2527.0,
          2521.0,
          2516.0,
          2514.0,
          2517.0,
          2520.0,
          2521.0,
          2520.0,
          2516.0,
          2514.0,
          2517.0,
          2523.0,
          2527.0,
          2518.0,
          2513.0,
          2507.0,
          2501.0,
          2499.0,
          2507.0,
          2512.0,
          2514.0,
          2511.0,
          2515.0,
          2520.0,
          2515.0,
          2513.0,
          2521.0,
          2525.0,
          2524.0,
          2517.0,
          2511.0,
          2511.0,
          2515.0,
          2515.0,
          2514.0,
          2513.0,
          2511.0,
          2516.0,
          2521.0,
          2521.0,
          2518.0,
          2518.0,
          2517.0,
          2518.0,
          2523.0,
          2522.0,
          2513.0,
          2507.0,
          2513.0,
          2515.0,
          2509.0,
          2506.0,
          2510.0,
          2514.0,
          2510.0,
          2506.0,
          2507.0,
          2508.0,
          2515.0,
          2520.0,
          2519.0,
          2513.0,
          2513.0,
