{
  "aor": 0.0019789634146341463,
  "aqi": 0.010717560426829267,
  "bids_meta": {
    "AcquisitionMatrixPE": 96,
    "AcquisitionNumber": 1,
    "AcquisitionTime": "07:57:26.645000",
    "BandwidthPerPixelPhaseEncode": 52.083,
    "BaseResolution": 96,
    "ConversionSoftware": "dcm2niix",
    "ConversionSoftwareVersion": "v1.0.20180622 GCC6.3.0",
    "DerivedVendorReportedEchoSpacing": 0.000600004,
    "DeviceSerialNumber": "18926",
    "DwellTime": 2.6e-06,
    "EchoTime": 0.025,
    "EffectiveEchoSpacing": 0.000200001,
    "FlipAngle": 50,
    "ImageOrientationPatientDICOM": [
      0.999992,
      0.00067012,
      0.00404905,
      2.11009e-10,
      0.98658,
      -0.16328
    ],
    "ImageType": [
      "ORIGINAL",
      "PRIMARY",
      "M",
      "ND",
      "ECHO",
      "00",
      "MOSAIC"
    ],
    "InPlanePhaseEncodingDirectionDICOM": "ROW",
    "InstitutionName": "NIMH",
    "InstitutionalDepartmentName": "Department",
    "MRAcquisitionType": "2D",
    "MagneticFieldStrength": 6.98,
    "Manufacturer": "Siemens",
    "ManufacturersModelName": "Investigational_Device_7T",
    "Modality": "MR",
    "ParallelReductionFactorInPlane": 3,
    "PartialFourier": 1,
    "PatientPosition": "HFS",
    "PercentPhaseFOV": 100,
    "PhaseEncodingDirection": "i",
    "PhaseEncodingSteps": 94,
    "PhaseResolution": 1,
    "PixelBandwidth": 2003,
    "ProcedureStepDescription": "MRI_Procedure_Limited",
    "ProtocolName": "NIH_EPI_2.0iso_TR2_Run06",
    "PulseSequenceDetails": "%CustomerSeq%_inati_nih_epi",
    "ReceiveCoilName": "32Ch_Head_7T",
    "ReconMatrixPE": 96,
    "RepetitionTime": 2,
    "SAR": 0.0759875,
    "ScanningSequence": "EP",
    "SequenceName": "epfid2d1_96",
    "SequenceVariant": "SK",
    "SeriesDescription": "NIH_EPI_2.0iso_TR2_Run06",
    "SeriesNumber": 10,
    "ShimSetting": [
      -131,
      290,
      1181,
      1697,
      -139,
      732,
      180,
      -249
    ],
    "SliceThickness": 2,
    "SliceTiming": [
      1.005,
      0,
      1.0425,
      0.0375,
      1.0775,
      0.075,
      1.115,
      0.1125,
      1.1525,
      0.15,
      1.19,
      0.1875,
      1.2275,
      0.2225,
      1.265,
      0.26,
      1.3025,
      0.2975,
      1.34,
      0.335,
      1.375,
      0.3725,
      1.4125,
      0.41,
      1.45,
      0.4475,
      1.4875,
      0.485,
      1.525,
      0.52,
      1.5625,
      0.5575,
      1.6,
      0.595,
      1.6375,
      0.6325,
      1.6725,
      0.67,
      1.71,
      0.7075,
      1.7475,
      0.745,
      1.785,
      0.7825,
      1.8225,
      0.8175,
      1.86,
      0.855,
      1.8975,
      0.8925,
      1.935,
      0.93,
      1.97,
      0.9675
    ],
    "SoftwareVersions": "syngo_MR_B17",
    "SpacingBetweenSlices": 2,
    "StationName": "FMRIFD7T",
    "TaskName": "FullFovNoAttentionTask",
    "TotalReadoutTime": 0.0190001,
    "TxRefAmp": 275,
    "dataset": "ds001555",
    "dcmmeta_affine": [
      [
        -1.9999831914901733,
        4.2201880878778297e-10,
        0.008208253420889378,
        95.76705169677734
      ],
      [
        -0.0013402394251897931,
        1.973159670829773,
        -0.32655632495880127,
        -61.09407043457031
      ],
      [
        0.008098097518086433,
        0.32655906677246094,
        1.9731431007385254,
        -51.69081115722656
      ],
      [
        0.0,
        0.0,
        0.0,
        1.0
      ]
    ],
    "dcmmeta_reorient_transform": [
      [
        0.0,
        -1.0,
        0.0,
        95.0
      ],
      [
        1.0,
        0.0,
        0.0,
        0.0
      ],
      [
        0.0,
        0.0,
        1.0,
        0.0
      ],
      [
        0.0,
        0.0,
        0.0,
        1.0
      ]
    ],
    "dcmmeta_shape": [
      96,
      96,
      54,
      164
    ],
    "dcmmeta_slice_dim": 2,
    "dcmmeta_version": 0.6,
    "global": {
      "const": {
        "AcquisitionMatrix": [
          0,
          96,
          96,
          0
        ],
        "Allergies": "No Known Allergies",
        "AngioFlag": "N",
        "BitsAllocated": 16,
        "BitsStored": 12,
        "Columns": 768,
        "EchoNumbers": 1,
        "EchoTime": 25.0,
        "EchoTrainLength": 1,
        "FlipAngle": 50.0,
        "HighBit": 11,
        "ImageOrientationPatient": [
          0.99999157803662,
          0.00067011969073,
          0.00404904870684,
          2.110094e-10,
          0.98657984636313,
          -0.1632795356133
        ],
        "ImagePositionPatient": [
          -767.761392775,
          -789.78807875724,
          86.335187039869
        ],
        "ImageType": [
          "ORIGINAL",
          "PRIMARY",
          "M",
          "ND",
          "ECHO_00",
          "MOSAIC"
        ],
        "ImagedNucleus": "1H",
        "ImagingFrequency": 297.205069,
        "InPlanePhaseEncodingDirection": "ROW",
        "LargestImagePixelValue": 4095,
        "MRAcquisitionType": "2D",
        "MagneticFieldStrength": 6.98,
        "Manufacturer": "SIEMENS",
        "ManufacturerModelName": "Investigational_Device_7T",
        "Modality": "MR",
        "NumberOfAverages": 1.0,
        "NumberOfPhaseEncodingSteps": 94,
        "PercentPhaseFieldOfView": 100.0,
        "PercentSampling": 100.0,
        "PerformedProcedureStepStartTime": "071100.015000",
        "PhotometricInterpretation": "MONOCHROME2",
        "PixelBandwidth": 2003.0,
        "PixelRepresentation": 0,
        "PixelSpacing": [
          2.0,
          2.0
        ],
        "PositionReferenceIndicator": "",
        "ProcedureCodeSequence": [
          {
            "CodeMeaning": "MRI Procedure Limited",
            "CodeValue": "MI01491",
            "CodingSchemeDesignator": "USA Standard",
            "ContextIdentifier": "4000112205"
          }
        ],
        "ProtocolName": "NIH_EPI_2.0iso_TR2_Run06",
        "ReferencedStudySequence": [
          {
            "ReferencedSOPClassUID": "1.2.840.10008.3.1.2.3.1",
            "ReferencedSOPInstanceUID": "1.2.840.113564.9.1.2723958737.61.2.5000078012"
          }
        ],
        "RepetitionTime": 2000.0,
        "RequestedProcedureCodeSequence": [
          {
            "CodeMeaning": "MRI Procedure Limited",
            "CodeValue": "MI01491",
            "CodingSchemeDesignator": "USA Standard",
            "ContextIdentifier": "4000112205"
          }
        ],
        "RequestingService": "MHED",
        "Rows": 768,
        "SAR": 0.07598745730917,
        "SamplesPerPixel": 1,
        "ScanningSequence": "EP",
        "SequenceName": "epfid2d1_96",
        "SequenceVariant": "SK",
        "SeriesDescription": "NIH_EPI_2.0iso_TR2_Run06",
        "SeriesNumber": 10,
        "SliceLocation": -40.628316438469,
        "SliceThickness": 2.0,
        "SmallestImagePixelValue": 0,
        "SoftwareVersions": "syngo MR B17",
        "SpacingBetweenSlices": 2.0000000184226,
        "TransmitCoilName": "32Ch_Head_7T",
        "VariableFlipAngleFlag": "N",
        "WindowCenterWidthExplanation": "Algo1",
        "dBdt": 0.0
      },
      "slices": {}
    },
    "modality": "bold",
    "run_id": 7,
    "session_id": "08",
    "subject_id": "002",
    "task_id": "FullFovNoAttentionTask",
    "time": {
      "samples": {
        "AcquisitionNumber": [
          1,
          2,
          3,
          4,
          5,
          6,
          7,
          8,
          9,
          10,
          11,
          12,
          13,
          14,
          15,
          16,
          17,
          18,
          19,
          20,
          21,
          22,
          23,
          24,
          25,
          26,
          27,
          28,
          29,
          30,
          31,
          32,
          33,
          34,
          35,
          36,
          37,
          38,
          39,
          40,
          41,
          42,
          43,
          44,
          45,
          46,
          47,
          48,
          49,
          50,
          51,
          52,
          53,
          54,
          55,
          56,
          57,
          58,
          59,
          60,
          61,
          62,
          63,
          64,
          65,
          66,
          67,
          68,
          69,
          70,
          71,
          72,
          73,
          74,
          75,
          76,
          77,
          78,
          79,
          80,
          81,
          82,
          83,
          84,
          85,
          86,
          87,
          88,
          89,
          90,
          91,
          92,
          93,
          94,
          95,
          96,
          97,
          98,
          99,
          100,
          101,
          102,
          103,
          104,
          105,
          106,
          107,
          108,
          109,
          110,
          111,
          112,
          113,
          114,
          115,
          116,
          117,
          118,
          119,
          120,
          121,
          122,
          123,
          124,
          125,
          126,
          127,
          128,
          129,
          130,
          131,
          132,
          133,
          134,
          135,
          136,
          137,
          138,
          139,
          140,
          141,
          142,
          143,
          144,
          145,
          146,
          147,
          148,
          149,
          150,
          151,
          152,
          153,
          154,
          155,
          156,
          157,
          158,
          159,
          160,
          161,
          162,
          163,
          164
        ],
        "AcquisitionTime": [
          "075726.645000",
          "075730.660000",
          "075732.667500",
          "075734.677500",
          "075736.685000",
          "075738.692500",
          "075740.700000",
          "075742.707500",
          "075744.717500",
          "075746.725000",
          "075748.732500",
          "075750.740000",
          "075752.750000",
          "075754.757500",
          "075756.765000",
          "075758.772500",
          "075800.780000",
          "075802.790000",
          "075804.797500",
          "075806.805000",
          "075808.812500",
          "075810.820000",
          "075812.830000",
          "075814.837500",
          "075816.845000",
          "075818.852500",
          "075820.860000",
          "075822.870000",
          "075824.877500",
          "075826.885000",
          "075828.892500",
          "075830.902500",
          "075832.910000",
          "075834.917500",
          "075836.925000",
          "075838.932500",
          "075840.942500",
          "075842.950000",
          "075844.957500",
          "075846.965000",
          "075848.972500",
          "075850.982500",
          "075852.990000",
          "075854.997500",
          "075857.005000",
          "075859.015000",
          "075901.022500",
          "075903.030000",
          "075905.037500",
          "075907.045000",
          "075909.055000",
          "075911.062500",
          "075913.070000",
          "075915.077500",
          "075917.085000",
          "075919.095000",
          "075921.102500",
          "075923.110000",
          "075925.117500",
          "075927.127500",
          "075929.135000",
          "075931.142500",
          "075933.150000",
          "075935.157500",
          "075937.167500",
          "075939.175000",
          "075941.182500",
          "075943.190000",
          "075945.197500",
          "075947.207500",
          "075949.215000",
          "075951.222500",
          "075953.230000",
          "075955.237500",
          "075957.247500",
          "075959.255000",
          "080001.262500",
          "080003.270000",
          "080005.280000",
          "080007.287500",
          "080009.295000",
          "080011.302500",
          "080013.310000",
          "080015.320000",
          "080017.327500",
          "080019.335000",
          "080021.342500",
          "080023.350000",
          "080025.360000",
          "080027.367500",
          "080029.375000",
          "080031.382500",
          "080033.392500",
          "080035.400000",
          "080037.407500",
          "080039.415000",
          "080041.422500",
          "080043.432500",
          "080045.440000",
          "080047.447500",
          "080049.455000",
          "080051.462500",
          "080053.472500",
          "080055.480000",
          "080057.487500",
          "080059.495000",
          "080101.505000",
          "080103.512500",
          "080105.520000",
          "080107.527500",
          "080109.535000",
          "080111.545000",
          "080113.552500",
          "080115.560000",
          "080117.567500",
          "080119.575000",
          "080121.585000",
          "080123.592500",
          "080125.600000",
          "080127.607500",
          "080129.617500",
          "080131.625000",
          "080133.632500",
          "080135.640000",
          "080137.647500",
          "080139.657500",
          "080141.665000",
          "080143.672500",
          "080145.680000",
          "080147.687500",
          "080149.697500",
          "080151.705000",
          "080153.712500",
          "080155.720000",
          "080157.727500",
          "080159.737500",
          "080201.745000",
          "080203.752500",
          "080205.760000",
          "080207.770000",
          "080209.777500",
          "080211.785000",
          "080213.792500",
          "080215.800000",
          "080217.810000",
          "080219.817500",
          "080221.825000",
          "080223.832500",
          "080225.840000",
          "080227.850000",
          "080229.857500",
          "080231.865000",
          "080233.872500",
          "080235.882500",
          "080237.890000",
          "080239.897500",
          "080241.905000",
          "080243.912500",
          "080245.922500",
          "080247.930000",
          "080249.937500",
          "080251.945000",
          "080253.952500",
          "080255.962500"
        ],
        "ContentTime": [
          "075826.906000",
          "075826.906000",
          "075826.906000",
          "075826.906000",
          "075826.906000",
          "075826.921000",
          "075826.921000",
          "075826.921000",
          "075826.921000",
          "075826.921000",
          "075826.921000",
          "075826.937000",
          "075826.937000",
          "075826.937000",
          "075826.937000",
          "075826.937000",
          "075826.937000",
          "075826.953000",
          "075826.953000",
          "075826.953000",
          "075826.953000",
          "075826.953000",
          "075826.968000",
          "075826.968000",
          "075826.968000",
          "075826.968000",
          "075826.968000",
          "075826.984000",
          "075826.984000",
          "075906.890000",
          "075906.890000",
          "075906.890000",
          "075906.906000",
          "075906.906000",
          "075906.906000",
          "075906.906000",
          "075906.906000",
          "075906.906000",
          "075906.921000",
          "075906.921000",
          "075906.921000",
          "075906.921000",
          "075906.921000",
          "075906.921000",
          "075906.921000",
          "075906.937000",
          "075906.937000",
          "075906.937000",
          "075906.937000",
          "075926.890000",
          "075926.890000",
          "075926.890000",
          "075926.906000",
          "075926.906000",
          "075926.906000",
          "075926.906000",
          "075926.906000",
          "075926.906000",
          "075926.906000",
          "080006.890000",
          "080006.890000",
          "080006.906000",
          "080006.906000",
          "080006.906000",
          "080006.906000",
          "080006.921000",
          "080006.921000",
          "080006.921000",
          "080006.921000",
          "080006.921000",
          "080006.921000",
          "080006.921000",
          "080006.937000",
          "080006.937000",
          "080006.937000",
          "080006.937000",
          "080006.937000",
          "080006.953000",
          "080006.953000",
          "080046.890000",
          "080046.890000",
          "080046.890000",
          "080046.906000",
          "080046.906000",
          "080046.906000",
          "080046.906000",
          "080046.921000",
          "080046.921000",
          "080046.921000",
          "080046.921000",
          "080046.921000",
          "080046.937000",
          "080046.937000",
          "080046.937000",
          "080046.937000",
          "080046.937000",
          "080046.937000",
          "080046.953000",
          "080046.953000",
          "080126.890000",
          "080126.890000",
          "080126.890000",
          "080126.906000",
          "080126.906000",
          "080126.906000",
          "080126.906000",
          "080126.921000",
          "080126.921000",
          "080126.921000",
          "080126.921000",
          "080126.921000",
          "080126.921000",
          "080126.937000",
          "080126.953000",
          "080126.953000",
          "080126.953000",
          "080126.953000",
          "080126.953000",
          "080126.953000",
          "080206.890000",
          "080206.890000",
          "080206.890000",
          "080206.906000",
          "080206.906000",
          "080206.906000",
          "080206.906000",
          "080206.906000",
          "080206.906000",
          "080206.906000",
          "080206.921000",
          "080206.921000",
          "080206.921000",
          "080206.921000",
          "080206.921000",
          "080206.921000",
          "080206.921000",
          "080206.937000",
          "080206.937000",
          "080206.937000",
          "080246.890000",
          "080246.890000",
          "080246.890000",
          "080246.906000",
          "080246.906000",
          "080246.906000",
          "080246.906000",
          "080246.906000",
          "080246.906000",
          "080246.906000",
          "080246.921000",
          "080246.921000",
          "080246.921000",
          "080246.921000",
          "080246.921000",
          "080246.921000",
          "080246.921000",
          "080246.937000",
          "080246.937000",
          "080246.937000",
          "080256.000000",
          "080256.015000",
          "080256.015000",
          "080256.015000",
          "080256.015000"
        ],
        "InstanceCreationTime": [
          "075826.906000",
          "075826.906000",
          "075826.906000",
          "075826.906000",
          "075826.906000",
          "075826.921000",
          "075826.921000",
          "075826.921000",
          "075826.921000",
          "075826.921000",
          "075826.921000",
          "075826.937000",
          "075826.937000",
          "075826.937000",
          "075826.937000",
          "075826.937000",
          "075826.937000",
          "075826.953000",
          "075826.953000",
          "075826.953000",
          "075826.953000",
          "075826.953000",
          "075826.968000",
          "075826.968000",
          "075826.968000",
          "075826.968000",
          "075826.968000",
          "075826.984000",
          "075826.984000",
          "075906.890000",
          "075906.890000",
          "075906.890000",
          "075906.906000",
          "075906.906000",
          "075906.906000",
          "075906.906000",
          "075906.906000",
          "075906.906000",
          "075906.921000",
          "075906.921000",
          "075906.921000",
          "075906.921000",
          "075906.921000",
          "075906.921000",
          "075906.921000",
          "075906.937000",
          "075906.937000",
          "075906.937000",
          "075906.937000",
          "075926.890000",
          "075926.890000",
          "075926.890000",
          "075926.906000",
          "075926.906000",
          "075926.906000",
          "075926.906000",
          "075926.906000",
          "075926.906000",
          "075926.906000",
          "080006.890000",
          "080006.890000",
          "080006.906000",
          "080006.906000",
          "080006.906000",
          "080006.906000",
          "080006.921000",
          "080006.921000",
          "080006.921000",
          "080006.921000",
          "080006.921000",
          "080006.921000",
          "080006.921000",
          "080006.937000",
          "080006.937000",
          "080006.937000",
          "080006.937000",
          "080006.937000",
          "080006.953000",
          "080006.953000",
          "080046.890000",
          "080046.890000",
          "080046.890000",
          "080046.906000",
          "080046.906000",
          "080046.906000",
          "080046.906000",
          "080046.921000",
          "080046.921000",
          "080046.921000",
          "080046.921000",
          "080046.921000",
          "080046.937000",
          "080046.937000",
          "080046.937000",
          "080046.937000",
          "080046.937000",
          "080046.937000",
          "080046.953000",
          "080046.953000",
          "080126.890000",
          "080126.890000",
          "080126.890000",
          "080126.906000",
          "080126.906000",
          "080126.906000",
          "080126.906000",
          "080126.921000",
          "080126.921000",
          "080126.921000",
          "080126.921000",
          "080126.921000",
          "080126.921000",
          "080126.937000",
          "080126.953000",
          "080126.953000",
          "080126.953000",
          "080126.953000",
          "080126.953000",
          "080126.953000",
          "080206.890000",
          "080206.890000",
          "080206.890000",
          "080206.906000",
          "080206.906000",
          "080206.906000",
          "080206.906000",
          "080206.906000",
          "080206.906000",
          "080206.906000",
          "080206.921000",
          "080206.921000",
          "080206.921000",
          "080206.921000",
          "080206.921000",
          "080206.921000",
          "080206.921000",
          "080206.937000",
          "080206.937000",
          "080206.937000",
          "080246.890000",
          "080246.890000",
          "080246.890000",
          "080246.906000",
          "080246.906000",
          "080246.906000",
          "080246.906000",
          "080246.906000",
          "080246.906000",
          "080246.906000",
          "080246.921000",
          "080246.921000",
          "080246.921000",
          "080246.921000",
          "080246.921000",
          "080246.921000",
          "080246.921000",
          "080246.937000",
          "080246.937000",
          "080246.937000",
          "080256.000000",
          "080256.015000",
          "080256.015000",
          "080256.015000",
          "080256.015000"
        ],
        "InstanceNumber": [
          1,
          2,
          3,
          4,
          5,
          6,
          7,
          8,
          9,
          10,
          11,
          12,
          13,
          14,
          15,
          16,
          17,
          18,
          19,
          20,
          21,
          22,
          23,
          24,
          25,
          26,
          27,
          28,
          29,
          30,
          31,
          32,
          33,
          34,
          35,
          36,
          37,
          38,
          39,
          40,
          41,
          42,
          43,
          44,
          45,
          46,
          47,
          48,
          49,
          50,
          51,
          52,
          53,
          54,
          55,
          56,
          57,
          58,
          59,
          60,
          61,
          62,
          63,
          64,
          65,
          66,
          67,
          68,
          69,
          70,
          71,
          72,
          73,
          74,
          75,
          76,
          77,
          78,
          79,
          80,
          81,
          82,
          83,
          84,
          85,
          86,
          87,
          88,
          89,
          90,
          91,
          92,
          93,
          94,
          95,
          96,
          97,
          98,
          99,
          100,
          101,
          102,
          103,
          104,
          105,
          106,
          107,
          108,
          109,
          110,
          111,
          112,
          113,
          114,
          115,
          116,
          117,
          118,
          119,
          120,
          121,
          122,
          123,
          124,
          125,
          126,
          127,
          128,
          129,
          130,
          131,
          132,
          133,
          134,
          135,
          136,
          137,
          138,
          139,
          140,
          141,
          142,
          143,
          144,
          145,
          146,
          147,
          148,
          149,
          150,
          151,
          152,
          153,
          154,
          155,
          156,
          157,
          158,
          159,
          160,
          161,
          162,
          163,
          164
        ],
        "WindowCenter": [
          1034.0,
          1036.0,
          1035.0,
          1032.0,
          1032.0,
          1031.0,
          1033.0,
          1036.0,
          1033.0,
          1034.0,
          1035.0,
          1036.0,
          1036.0,
          1036.0,
          1036.0,
          1037.0,
          1035.0,
          1036.0,
          1039.0,
          1035.0,
          1033.0,
          1035.0,
          1033.0,
          1031.0,
          1030.0,
          1029.0,
          1032.0,
          1031.0,
          1031.0,
          1032.0,
          1033.0,
          1032.0,
          1032.0,
          1033.0,
          1032.0,
          1032.0,
          1032.0,
          1034.0,
          1036.0,
          1033.0,
          1032.0,
          1032.0,
          1035.0,
          1037.0,
          1034.0,
          1034.0,
          1036.0,
          1037.0,
          1035.0,
          1035.0,
          1033.0,
          1034.0,
          1034.0,
          1034.0,
          1035.0,
          1037.0,
          1035.0,
          1036.0,
          1038.0,
          1036.0,
          1038.0,
          1037.0,
          1034.0,
          1036.0,
          1035.0,
          1034.0,
          1034.0,
          1036.0,
          1039.0,
          1037.0,
          1037.0,
          1039.0,
          1037.0,
          1039.0,
          1043.0,
          1039.0,
          1034.0,
          1034.0,
          1035.0,
          1035.0,
          1034.0,
          1033.0,
          1037.0,
          1035.0,
          1036.0,
          1039.0,
          1037.0,
          1036.0,
          1036.0,
          1034.0,
          1037.0,
          1039.0,
          1039.0,
          1038.0,
          1036.0,
          1036.0,
          1036.0,
          1039.0,
          1041.0,
          1038.0,
          1036.0,
          1035.0,
          1035.0,
          1036.0,
          1033.0,
          1034.0,
          1037.0,
          1037.0,
          1038.0,
          1036.0,
          1035.0,
          1035.0,
          1036.0,
          1036.0,
          1033.0,
          1033.0,
          1033.0,
          1034.0,
          1035.0,
          1039.0,
          1039.0,
          1038.0,
          1037.0,
          1036.0,
          1039.0,
          1040.0,
          1039.0,
          1038.0,
          1039.0,
          1039.0,
          1038.0,
          1038.0,
          1039.0,
          1041.0,
          1040.0,
          1042.0,
          1040.0,
          1041.0,
          1042.0,
          1041.0,
          1036.0,
          1035.0,
          1035.0,
          1036.0,
          1034.0,
          1034.0,
          1033.0,
          1034.0,
          1035.0,
          1036.0,
          1036.0,
          1034.0,
          1033.0,
          1034.0,
          1036.0,
          1040.0,
          1040.0,
          1036.0,
          1035.0,
          1036.0,
          1038.0,
          1038.0,
          1036.0,
          1040.0
        ],
        "WindowWidth": [
          2733.0,
          2739.0,
          2732.0,
          2727.0,
          2728.0,
          2723.0,
          2734.0,
          2733.0,
          2726.0,
          2729.0,
          2736.0,
          2740.0,
          2736.0,
          2738.0,
          2735.0,
          2736.0,
          2739.0,
          2742.0,
          2743.0,
          2732.0,
          2725.0,
          2735.0,
          2727.0,
          2717.0,
          2713.0,
          2711.0,
          2722.0,
          2719.0,
          2715.0,
          2727.0,
          2725.0,
          2723.0,
          2727.0,
          2723.0,
          2716.0,
          2720.0,
          2728.0,
          2737.0,
          2736.0,
          2720.0,
          2718.0,
          2722.0,
          2730.0,
          2735.0,
          2727.0,
          2732.0,
          2747.0,
          2742.0,
          2738.0,
          2729.0,
          2718.0,
          2721.0,
          2725.0,
          2733.0,
          2741.0,
          2736.0,
          2729.0,
          2727.0,
          2735.0,
          2735.0,
          2749.0,
          2740.0,
          2729.0,
          2728.0,
          2721.0,
          2717.0,
          2724.0,
          2735.0,
          2736.0,
          2729.0,
          2731.0,
          2739.0,
          2739.0,
          2755.0,
          2765.0,
          2742.0,
          2726.0,
          2726.0,
          2726.0,
          2722.0,
          2714.0,
          2718.0,
          2734.0,
          2731.0,
          2735.0,
          2745.0,
