{
  "aor": 0.005034695121951219,
  "aqi": 0.010393560914634146,
  "bids_meta": {
    "AcquisitionMatrixPE": 96,
    "AcquisitionNumber": 1,
    "AcquisitionTime": "08:04:2.157500",
    "BandwidthPerPixelPhaseEncode": 52.083,
    "BaseResolution": 96,
    "ConversionSoftware": "dcm2niix",
    "ConversionSoftwareVersion": "v1.0.20180622 GCC6.3.0",
    "DerivedVendorReportedEchoSpacing": 0.000600004,
    "DeviceSerialNumber": "18926",
    "DwellTime": 2.6e-06,
    "EchoTime": 0.025,
    "EffectiveEchoSpacing": 0.000200001,
    "FlipAngle": 50,
    "ImageOrientationPatientDICOM": [
      0.999992,
      0.00067012,
      0.00404905,
      2.11009e-10,
      0.98658,
      -0.16328
    ],
    "ImageType": [
      "ORIGINAL",
      "PRIMARY",
      "M",
      "ND",
      "ECHO",
      "00",
      "MOSAIC"
    ],
    "InPlanePhaseEncodingDirectionDICOM": "ROW",
    "InstitutionName": "NIMH",
    "InstitutionalDepartmentName": "Department",
    "MRAcquisitionType": "2D",
    "MagneticFieldStrength": 6.98,
    "Manufacturer": "Siemens",
    "ManufacturersModelName": "Investigational_Device_7T",
    "Modality": "MR",
    "ParallelReductionFactorInPlane": 3,
    "PartialFourier": 1,
    "PatientPosition": "HFS",
    "PercentPhaseFOV": 100,
    "PhaseEncodingDirection": "i",
    "PhaseEncodingSteps": 94,
    "PhaseResolution": 1,
    "PixelBandwidth": 2003,
    "ProcedureStepDescription": "MRI_Procedure_Limited",
    "ProtocolName": "NIH_EPI_2.0iso_TR2_Run07",
    "PulseSequenceDetails": "%CustomerSeq%_inati_nih_epi",
    "ReceiveCoilName": "32Ch_Head_7T",
    "ReconMatrixPE": 96,
    "RepetitionTime": 2,
    "SAR": 0.0759875,
    "ScanningSequence": "EP",
    "SequenceName": "epfid2d1_96",
    "SequenceVariant": "SK",
    "SeriesDescription": "NIH_EPI_2.0iso_TR2_Run07",
    "SeriesNumber": 11,
    "ShimSetting": [
      -131,
      290,
      1181,
      1697,
      -139,
      732,
      180,
      -249
    ],
    "SliceThickness": 2,
    "SliceTiming": [
      1.005,
      0,
      1.04,
      0.0375,
      1.0775,
      0.075,
      1.115,
      0.1125,
      1.1525,
      0.1475,
      1.19,
      0.185,
      1.2275,
      0.2225,
      1.265,
      0.26,
      1.3025,
      0.2975,
      1.3375,
      0.335,
      1.375,
      0.3725,
      1.4125,
      0.41,
      1.45,
      0.445,
      1.4875,
      0.4825,
      1.525,
      0.52,
      1.5625,
      0.5575,
      1.5975,
      0.595,
      1.635,
      0.6325,
      1.6725,
      0.67,
      1.71,
      0.7075,
      1.7475,
      0.7425,
      1.785,
      0.78,
      1.8225,
      0.8175,
      1.86,
      0.855,
      1.895,
      0.8925,
      1.9325,
      0.93,
      1.97,
      0.9675
    ],
    "SoftwareVersions": "syngo_MR_B17",
    "SpacingBetweenSlices": 2,
    "StationName": "FMRIFD7T",
    "TaskName": "FullFovNoAttentionTask",
    "TotalReadoutTime": 0.0190001,
    "TxRefAmp": 275,
    "dataset": "ds001555",
    "dcmmeta_affine": [
      [
        -1.9999831914901733,
        4.2201880878778297e-10,
        0.008208253420889378,
        95.76705169677734
      ],
      [
        -0.0013402394251897931,
        1.973159670829773,
        -0.32655632495880127,
        -61.09407043457031
      ],
      [
        0.008098097518086433,
        0.32655906677246094,
        1.9731431007385254,
        -51.69081115722656
      ],
      [
        0.0,
        0.0,
        0.0,
        1.0
      ]
    ],
    "dcmmeta_reorient_transform": [
      [
        0.0,
        -1.0,
        0.0,
        95.0
      ],
      [
        1.0,
        0.0,
        0.0,
        0.0
      ],
      [
        0.0,
        0.0,
        1.0,
        0.0
      ],
      [
        0.0,
        0.0,
        0.0,
        1.0
      ]
    ],
    "dcmmeta_shape": [
      96,
      96,
      54,
      164
    ],
    "dcmmeta_slice_dim": 2,
    "dcmmeta_version": 0.6,
    "global": {
      "const": {
        "AcquisitionMatrix": [
          0,
          96,
          96,
          0
        ],
        "Allergies": "No Known Allergies",
        "AngioFlag": "N",
        "BitsAllocated": 16,
        "BitsStored": 12,
        "Columns": 768,
        "EchoNumbers": 1,
        "EchoTime": 25.0,
        "EchoTrainLength": 1,
        "FlipAngle": 50.0,
        "HighBit": 11,
        "ImageOrientationPatient": [
          0.99999157803662,
          0.00067011969073,
          0.00404904870684,
          2.110094e-10,
          0.98657984636313,
          -0.1632795356133
        ],
        "ImagePositionPatient": [
          -767.761392775,
          -789.78807875724,
          86.335187039869
        ],
        "ImageType": [
          "ORIGINAL",
          "PRIMARY",
          "M",
          "ND",
          "ECHO_00",
          "MOSAIC"
        ],
        "ImagedNucleus": "1H",
        "ImagingFrequency": 297.205093,
        "InPlanePhaseEncodingDirection": "ROW",
        "LargestImagePixelValue": 4095,
        "MRAcquisitionType": "2D",
        "MagneticFieldStrength": 6.98,
        "Manufacturer": "SIEMENS",
        "ManufacturerModelName": "Investigational_Device_7T",
        "Modality": "MR",
        "NumberOfAverages": 1.0,
        "NumberOfPhaseEncodingSteps": 94,
        "PercentPhaseFieldOfView": 100.0,
        "PercentSampling": 100.0,
        "PerformedProcedureStepStartTime": "071100.015000",
        "PhotometricInterpretation": "MONOCHROME2",
        "PixelBandwidth": 2003.0,
        "PixelRepresentation": 0,
        "PixelSpacing": [
          2.0,
          2.0
        ],
        "PositionReferenceIndicator": "",
        "ProcedureCodeSequence": [
          {
            "CodeMeaning": "MRI Procedure Limited",
            "CodeValue": "MI01491",
            "CodingSchemeDesignator": "USA Standard",
            "ContextIdentifier": "4000112205"
          }
        ],
        "ProtocolName": "NIH_EPI_2.0iso_TR2_Run07",
        "ReferencedStudySequence": [
          {
            "ReferencedSOPClassUID": "1.2.840.10008.3.1.2.3.1",
            "ReferencedSOPInstanceUID": "1.2.840.113564.9.1.2723958737.61.2.5000078012"
          }
        ],
        "RepetitionTime": 2000.0,
        "RequestedProcedureCodeSequence": [
          {
            "CodeMeaning": "MRI Procedure Limited",
            "CodeValue": "MI01491",
            "CodingSchemeDesignator": "USA Standard",
            "ContextIdentifier": "4000112205"
          }
        ],
        "RequestingService": "MHED",
        "Rows": 768,
        "SAR": 0.07598745730917,
        "SamplesPerPixel": 1,
        "ScanningSequence": "EP",
        "SequenceName": "epfid2d1_96",
        "SequenceVariant": "SK",
        "SeriesDescription": "NIH_EPI_2.0iso_TR2_Run07",
        "SeriesNumber": 11,
        "SliceLocation": -40.628316438469,
        "SliceThickness": 2.0,
        "SmallestImagePixelValue": 0,
        "SoftwareVersions": "syngo MR B17",
        "SpacingBetweenSlices": 2.0000000184226,
        "TransmitCoilName": "32Ch_Head_7T",
        "VariableFlipAngleFlag": "N",
        "WindowCenterWidthExplanation": "Algo1",
        "dBdt": 0.0
      },
      "slices": {}
    },
    "modality": "bold",
    "run_id": 8,
    "session_id": "08",
    "subject_id": "002",
    "task_id": "FullFovNoAttentionTask",
    "time": {
      "samples": {
        "AcquisitionNumber": [
          1,
          2,
          3,
          4,
          5,
          6,
          7,
          8,
          9,
          10,
          11,
          12,
          13,
          14,
          15,
          16,
          17,
          18,
          19,
          20,
          21,
          22,
          23,
          24,
          25,
          26,
          27,
          28,
          29,
          30,
          31,
          32,
          33,
          34,
          35,
          36,
          37,
          38,
          39,
          40,
          41,
          42,
          43,
          44,
          45,
          46,
          47,
          48,
          49,
          50,
          51,
          52,
          53,
          54,
          55,
          56,
          57,
          58,
          59,
          60,
          61,
          62,
          63,
          64,
          65,
          66,
          67,
          68,
          69,
          70,
          71,
          72,
          73,
          74,
          75,
          76,
          77,
          78,
          79,
          80,
          81,
          82,
          83,
          84,
          85,
          86,
          87,
          88,
          89,
          90,
          91,
          92,
          93,
          94,
          95,
          96,
          97,
          98,
          99,
          100,
          101,
          102,
          103,
          104,
          105,
          106,
          107,
          108,
          109,
          110,
          111,
          112,
          113,
          114,
          115,
          116,
          117,
          118,
          119,
          120,
          121,
          122,
          123,
          124,
          125,
          126,
          127,
          128,
          129,
          130,
          131,
          132,
          133,
          134,
          135,
          136,
          137,
          138,
          139,
          140,
          141,
          142,
          143,
          144,
          145,
          146,
          147,
          148,
          149,
          150,
          151,
          152,
          153,
          154,
          155,
          156,
          157,
          158,
          159,
          160,
          161,
          162,
          163,
          164
        ],
        "AcquisitionTime": [
          "080402.157500",
          "080406.172500",
          "080408.180000",
          "080410.187500",
          "080412.197500",
          "080414.205000",
          "080416.212500",
          "080418.220000",
          "080420.227500",
          "080422.237500",
          "080424.245000",
          "080426.252500",
          "080428.260000",
          "080430.270000",
          "080432.277500",
          "080434.285000",
          "080436.292500",
          "080438.300000",
          "080440.310000",
          "080442.317500",
          "080444.325000",
          "080446.332500",
          "080448.340000",
          "080450.350000",
          "080452.357500",
          "080454.365000",
          "080456.372500",
          "080458.382500",
          "080500.390000",
          "080502.397500",
          "080504.405000",
          "080506.412500",
          "080508.422500",
          "080510.430000",
          "080512.437500",
          "080514.445000",
          "080516.452500",
          "080518.462500",
          "080520.470000",
          "080522.477500",
          "080524.485000",
          "080526.492500",
          "080528.502500",
          "080530.510000",
          "080532.517500",
          "080534.525000",
          "080536.535000",
          "080538.542500",
          "080540.550000",
          "080542.557500",
          "080544.565000",
          "080546.575000",
          "080548.582500",
          "080550.590000",
          "080552.597500",
          "080554.605000",
          "080556.615000",
          "080558.622500",
          "080600.630000",
          "080602.637500",
          "080604.647500",
          "080606.655000",
          "080608.662500",
          "080610.670000",
          "080612.677500",
          "080614.687500",
          "080616.695000",
          "080618.702500",
          "080620.710000",
          "080622.717500",
          "080624.727500",
          "080626.735000",
          "080628.742500",
          "080630.750000",
          "080632.760000",
          "080634.767500",
          "080636.775000",
          "080638.782500",
          "080640.790000",
          "080642.800000",
          "080644.807500",
          "080646.815000",
          "080648.822500",
          "080650.830000",
          "080652.840000",
          "080654.847500",
          "080656.855000",
          "080658.862500",
          "080700.870000",
          "080702.880000",
          "080704.887500",
          "080706.895000",
          "080708.902500",
          "080710.912500",
          "080712.920000",
          "080714.927500",
          "080716.935000",
          "080718.942500",
          "080720.952500",
          "080722.960000",
          "080724.967500",
          "080726.975000",
          "080728.982500",
          "080730.992500",
          "080733.000000",
          "080735.007500",
          "080737.015000",
          "080739.025000",
          "080741.032500",
          "080743.040000",
          "080745.047500",
          "080747.055000",
          "080749.065000",
          "080751.072500",
          "080753.080000",
          "080755.087500",
          "080757.095000",
          "080759.105000",
          "080801.112500",
          "080803.120000",
          "080805.127500",
          "080807.137500",
          "080809.145000",
          "080811.152500",
          "080813.160000",
          "080815.167500",
          "080817.177500",
          "080819.185000",
          "080821.192500",
          "080823.200000",
          "080825.207500",
          "080827.217500",
          "080829.225000",
          "080831.232500",
          "080833.240000",
          "080835.247500",
          "080837.257500",
          "080839.265000",
          "080841.272500",
          "080843.280000",
          "080845.290000",
          "080847.297500",
          "080849.305000",
          "080851.312500",
          "080853.320000",
          "080855.330000",
          "080857.337500",
          "080859.345000",
          "080901.352500",
          "080903.360000",
          "080905.370000",
          "080907.377500",
          "080909.385000",
          "080911.392500",
          "080913.402500",
          "080915.410000",
          "080917.417500",
          "080919.425000",
          "080921.432500",
          "080923.442500",
          "080925.450000",
          "080927.457500",
          "080929.465000",
          "080931.472500"
        ],
        "ContentTime": [
          "080447.078000",
          "080447.078000",
          "080447.093000",
          "080447.093000",
          "080447.093000",
          "080447.093000",
          "080447.093000",
          "080447.109000",
          "080447.109000",
          "080447.109000",
          "080447.109000",
          "080447.109000",
          "080447.109000",
          "080447.109000",
          "080447.125000",
          "080447.125000",
          "080447.125000",
          "080447.125000",
          "080447.125000",
          "080447.125000",
          "080447.140000",
          "080527.062000",
          "080527.062000",
          "080527.062000",
          "080527.078000",
          "080527.078000",
          "080527.078000",
          "080527.078000",
          "080527.078000",
          "080527.078000",
          "080527.078000",
          "080527.093000",
          "080527.093000",
          "080527.093000",
          "080527.093000",
          "080527.093000",
          "080527.093000",
          "080527.109000",
          "080527.109000",
          "080527.109000",
          "080527.109000",
          "080607.062000",
          "080607.062000",
          "080607.062000",
          "080607.078000",
          "080607.078000",
          "080607.078000",
          "080607.078000",
          "080607.078000",
          "080607.078000",
          "080607.078000",
          "080607.093000",
          "080607.093000",
          "080607.093000",
          "080607.093000",
          "080607.093000",
          "080607.093000",
          "080607.109000",
          "080607.109000",
          "080607.109000",
          "080607.109000",
          "080647.062000",
          "080647.062000",
          "080647.062000",
          "080647.078000",
          "080647.078000",
          "080647.078000",
          "080647.078000",
          "080647.078000",
          "080647.078000",
          "080647.093000",
          "080647.093000",
          "080647.093000",
          "080647.093000",
          "080647.093000",
          "080647.109000",
          "080647.109000",
          "080647.109000",
          "080647.109000",
          "080647.109000",
          "080647.109000",
          "080727.062000",
          "080727.078000",
          "080727.078000",
          "080727.078000",
          "080727.078000",
          "080727.078000",
          "080727.078000",
          "080727.093000",
          "080727.093000",
          "080727.093000",
          "080727.093000",
          "080727.093000",
          "080727.093000",
          "080727.109000",
          "080727.109000",
          "080727.109000",
          "080727.109000",
          "080727.109000",
          "080727.109000",
          "080727.109000",
          "080807.062000",
          "080807.062000",
          "080807.062000",
          "080807.078000",
          "080807.078000",
          "080807.078000",
          "080807.078000",
          "080807.078000",
          "080807.078000",
          "080807.093000",
          "080807.093000",
          "080807.093000",
          "080807.093000",
          "080807.093000",
          "080807.093000",
          "080807.109000",
          "080807.109000",
          "080807.109000",
          "080807.109000",
          "080807.125000",
          "080847.062000",
          "080847.078000",
          "080847.078000",
          "080847.078000",
          "080847.078000",
          "080847.078000",
          "080847.093000",
          "080847.093000",
          "080847.093000",
          "080847.093000",
          "080847.093000",
          "080847.093000",
          "080847.109000",
          "080847.109000",
          "080847.109000",
          "080847.109000",
          "080847.109000",
          "080847.125000",
          "080847.125000",
          "080847.125000",
          "080927.062000",
          "080927.062000",
          "080927.062000",
          "080927.078000",
          "080927.078000",
          "080927.078000",
          "080927.078000",
          "080927.078000",
          "080927.078000",
          "080927.093000",
          "080927.093000",
          "080927.093000",
          "080927.093000",
          "080927.093000",
          "080927.093000",
          "080927.093000",
          "080927.109000",
          "080927.109000",
          "080927.109000",
          "080927.109000",
          "080931.578000",
          "080931.578000",
          "080931.578000"
        ],
        "InstanceCreationTime": [
          "080447.078000",
          "080447.078000",
          "080447.093000",
          "080447.093000",
          "080447.093000",
          "080447.093000",
          "080447.093000",
          "080447.109000",
          "080447.109000",
          "080447.109000",
          "080447.109000",
          "080447.109000",
          "080447.109000",
          "080447.109000",
          "080447.125000",
          "080447.125000",
          "080447.125000",
          "080447.125000",
          "080447.125000",
          "080447.125000",
          "080447.140000",
          "080527.062000",
          "080527.062000",
          "080527.062000",
          "080527.078000",
          "080527.078000",
          "080527.078000",
          "080527.078000",
          "080527.078000",
          "080527.078000",
          "080527.078000",
          "080527.093000",
          "080527.093000",
          "080527.093000",
          "080527.093000",
          "080527.093000",
          "080527.093000",
          "080527.109000",
          "080527.109000",
          "080527.109000",
          "080527.109000",
          "080607.062000",
          "080607.062000",
          "080607.062000",
          "080607.078000",
          "080607.078000",
          "080607.078000",
          "080607.078000",
          "080607.078000",
          "080607.078000",
          "080607.078000",
          "080607.093000",
          "080607.093000",
          "080607.093000",
          "080607.093000",
          "080607.093000",
          "080607.093000",
          "080607.109000",
          "080607.109000",
          "080607.109000",
          "080607.109000",
          "080647.062000",
          "080647.062000",
          "080647.062000",
          "080647.078000",
          "080647.078000",
          "080647.078000",
          "080647.078000",
          "080647.078000",
          "080647.078000",
          "080647.093000",
          "080647.093000",
          "080647.093000",
          "080647.093000",
          "080647.093000",
          "080647.109000",
          "080647.109000",
          "080647.109000",
          "080647.109000",
          "080647.109000",
          "080647.109000",
          "080727.062000",
          "080727.078000",
          "080727.078000",
          "080727.078000",
          "080727.078000",
          "080727.078000",
          "080727.078000",
          "080727.093000",
          "080727.093000",
          "080727.093000",
          "080727.093000",
          "080727.093000",
          "080727.093000",
          "080727.109000",
          "080727.109000",
          "080727.109000",
          "080727.109000",
          "080727.109000",
          "080727.109000",
          "080727.109000",
          "080807.062000",
          "080807.062000",
          "080807.062000",
          "080807.078000",
          "080807.078000",
          "080807.078000",
          "080807.078000",
          "080807.078000",
          "080807.078000",
          "080807.093000",
          "080807.093000",
          "080807.093000",
          "080807.093000",
          "080807.093000",
          "080807.093000",
          "080807.109000",
          "080807.109000",
          "080807.109000",
          "080807.109000",
          "080807.125000",
          "080847.062000",
          "080847.078000",
          "080847.078000",
          "080847.078000",
          "080847.078000",
          "080847.078000",
          "080847.093000",
          "080847.093000",
          "080847.093000",
          "080847.093000",
          "080847.093000",
          "080847.093000",
          "080847.109000",
          "080847.109000",
          "080847.109000",
          "080847.109000",
          "080847.109000",
          "080847.125000",
          "080847.125000",
          "080847.125000",
          "080927.062000",
          "080927.062000",
          "080927.062000",
          "080927.078000",
          "080927.078000",
          "080927.078000",
          "080927.078000",
          "080927.078000",
          "080927.078000",
          "080927.093000",
          "080927.093000",
          "080927.093000",
          "080927.093000",
          "080927.093000",
          "080927.093000",
          "080927.093000",
          "080927.109000",
          "080927.109000",
          "080927.109000",
          "080927.109000",
          "080931.578000",
          "080931.578000",
          "080931.578000"
        ],
        "InstanceNumber": [
          1,
          2,
          3,
          4,
          5,
          6,
          7,
          8,
          9,
          10,
          11,
          12,
          13,
          14,
          15,
          16,
          17,
          18,
          19,
          20,
          21,
          22,
          23,
          24,
          25,
          26,
          27,
          28,
          29,
          30,
          31,
          32,
          33,
          34,
          35,
          36,
          37,
          38,
          39,
          40,
          41,
          42,
          43,
          44,
          45,
          46,
          47,
          48,
          49,
          50,
          51,
          52,
          53,
          54,
          55,
          56,
          57,
          58,
          59,
          60,
          61,
          62,
          63,
          64,
          65,
          66,
          67,
          68,
          69,
          70,
          71,
          72,
          73,
          74,
          75,
          76,
          77,
          78,
          79,
          80,
          81,
          82,
          83,
          84,
          85,
          86,
          87,
          88,
          89,
          90,
          91,
          92,
          93,
          94,
          95,
          96,
          97,
          98,
          99,
          100,
          101,
          102,
          103,
          104,
          105,
          106,
          107,
          108,
          109,
          110,
          111,
          112,
          113,
          114,
          115,
          116,
          117,
          118,
          119,
          120,
          121,
          122,
          123,
          124,
          125,
          126,
          127,
          128,
          129,
          130,
          131,
          132,
          133,
          134,
          135,
          136,
          137,
          138,
          139,
          140,
          141,
          142,
          143,
          144,
          145,
          146,
          147,
          148,
          149,
          150,
          151,
          152,
          153,
          154,
          155,
          156,
          157,
          158,
          159,
          160,
          161,
          162,
          163,
          164
        ],
        "WindowCenter": [
          1034.0,
          1035.0,
          1035.0,
          1033.0,
          1031.0,
          1031.0,
          1033.0,
          1031.0,
          1033.0,
          1033.0,
          1034.0,
          1032.0,
          1032.0,
          1036.0,
          1035.0,
          1033.0,
          1035.0,
          1035.0,
          1034.0,
          1033.0,
          1035.0,
          1035.0,
          1034.0,
          1034.0,
          1037.0,
          1036.0,
          1039.0,
          1037.0,
          1036.0,
          1032.0,
          1033.0,
          1033.0,
          1033.0,
          1033.0,
          1036.0,
          1035.0,
          1034.0,
          1034.0,
          1031.0,
          1033.0,
          1034.0,
          1035.0,
          1036.0,
          1036.0,
          1034.0,
          1034.0,
          1035.0,
          1036.0,
          1036.0,
          1034.0,
          1035.0,
          1035.0,
          1035.0,
          1036.0,
          1037.0,
          1034.0,
          1032.0,
          1033.0,
          1035.0,
          1034.0,
          1035.0,
          1035.0,
          1034.0,
          1035.0,
          1033.0,
          1033.0,
          1036.0,
          1035.0,
          1034.0,
          1034.0,
          1033.0,
          1032.0,
          1031.0,
          1032.0,
          1034.0,
          1033.0,
          1036.0,
          1035.0,
          1033.0,
          1036.0,
          1035.0,
          1034.0,
          1035.0,
          1036.0,
          1037.0,
          1035.0,
          1033.0,
          1035.0,
          1033.0,
          1033.0,
          1034.0,
          1035.0,
          1034.0,
          1033.0,
          1033.0,
          1032.0,
          1033.0,
          1036.0,
          1037.0,
          1032.0,
          1032.0,
          1032.0,
          1033.0,
          1033.0,
          1033.0,
          1033.0,
          1033.0,
          1031.0,
          1032.0,
          1032.0,
          1034.0,
          1033.0,
          1032.0,
          1031.0,
          1033.0,
          1035.0,
          1034.0,
          1035.0,
          1036.0,
          1034.0,
          1036.0,
          1037.0,
          1037.0,
          1036.0,
          1036.0,
          1035.0,
          1036.0,
          1036.0,
          1038.0,
          1033.0,
          1029.0,
          1029.0,
          1030.0,
          1030.0,
          1031.0,
          1029.0,
          1029.0,
          1032.0,
          1033.0,
          1033.0,
          1032.0,
          1035.0,
          1033.0,
          1032.0,
          1031.0,
          1032.0,
          1034.0,
          1035.0,
          1033.0,
          1034.0,
          1034.0,
          1032.0,
          1032.0,
          1032.0,
          1033.0,
          1034.0,
          1035.0,
          1035.0,
          1037.0,
          1036.0,
          1035.0,
          1035.0,
          1035.0,
          1035.0
        ],
        "WindowWidth": [
          2728.0,
          2735.0,
          2732.0,
          2722.0,
          2710.0,
          2719.0,
          2723.0,
          2720.0,
          2726.0,
          2729.0,
          2728.0,
          2717.0,
          2720.0,
          2735.0,
          2730.0,
          2728.0,
          2734.0,
          2732.0,
          2724.0,
          2720.0,
          2730.0,
          2733.0,
          2724.0,
          2729.0,
          2733.0,
          2739.0,
          2748.0,
          2737.0,
          2729.0,
          2721.0,
          2725.0,
          2725.0,
          2721.0,
          2728.0,
          2742.0,
          2729.0,
          2729.0,
          2720.0,
          2715.0,
          2728.0,
          2730.0,
          2735.0,
          2738.0,
          2737.0,
          2728.0,
          2725.0,
          2737.0,
          2740.0,
          2734.0,
          2730.0,
          2728.0,
          2729.0,
          2734.0,
          2743.0,
          2736.0,
          2724.0,
          2723.0,
          2728.0,
          2733.0,
          2731.0,
          2738.0,
          2731.0,
          2728.0,
          2729.0,
          2721.0,
          2723.0,
          2737.0,
          2735.0,
          2727.0,
          2727.0,
          2722.0,
          2715.0,
          2712.0,
          2722.0,
          2726.0,
          2726.0,
          2730.0,
          2725.0,
          2725.0,
          2734.0,
          2727.0,
          2727.0,
          2733.0,
          2736.0,
          2739.0,
          2731.0,
