{
  "aor": 0.0031603658536585363,
  "aqi": 0.008286974268292684,
  "bids_meta": {
    "AcquisitionMatrixPE": 96,
    "AcquisitionNumber": 1,
    "AcquisitionTime": "07:32:8.700000",
    "BandwidthPerPixelPhaseEncode": 52.083,
    "BaseResolution": 96,
    "ConversionSoftware": "dcm2niix",
    "ConversionSoftwareVersion": "v1.0.20180622 GCC6.3.0",
    "DerivedVendorReportedEchoSpacing": 0.000600004,
    "DeviceSerialNumber": "18926",
    "DwellTime": 2.6e-06,
    "EchoTime": 0.025,
    "EffectiveEchoSpacing": 0.000200001,
    "FlipAngle": 50,
    "ImageOrientationPatientDICOM": [
      0.999992,
      0.00067012,
      0.00404905,
      2.11009e-10,
      0.98658,
      -0.16328
    ],
    "ImageType": [
      "ORIGINAL",
      "PRIMARY",
      "M",
      "ND",
      "ECHO",
      "00",
      "MOSAIC"
    ],
    "InPlanePhaseEncodingDirectionDICOM": "ROW",
    "InstitutionName": "NIMH",
    "InstitutionalDepartmentName": "Department",
    "MRAcquisitionType": "2D",
    "MagneticFieldStrength": 6.98,
    "Manufacturer": "Siemens",
    "ManufacturersModelName": "Investigational_Device_7T",
    "Modality": "MR",
    "ParallelReductionFactorInPlane": 3,
    "PartialFourier": 1,
    "PatientPosition": "HFS",
    "PercentPhaseFOV": 100,
    "PhaseEncodingDirection": "i",
    "PhaseEncodingSteps": 94,
    "PhaseResolution": 1,
    "PixelBandwidth": 2003,
    "ProcedureStepDescription": "MRI_Procedure_Limited",
    "ProtocolName": "NIH_EPI_2.0iso_TR2_Run02",
    "PulseSequenceDetails": "%CustomerSeq%_inati_nih_epi",
    "ReceiveCoilName": "32Ch_Head_7T",
    "ReconMatrixPE": 96,
    "RepetitionTime": 2,
    "SAR": 0.0759875,
    "ScanningSequence": "EP",
    "SequenceName": "epfid2d1_96",
    "SequenceVariant": "SK",
    "SeriesDescription": "NIH_EPI_2.0iso_TR2_Run02",
    "SeriesNumber": 6,
    "ShimSetting": [
      -131,
      290,
      1181,
      1697,
      -139,
      732,
      180,
      -249
    ],
    "SliceThickness": 2,
    "SliceTiming": [
      1.0025,
      0,
      1.04,
      0.0375,
      1.0775,
      0.075,
      1.115,
      0.11,
      1.1525,
      0.1475,
      1.19,
      0.185,
      1.2275,
      0.2225,
      1.2625,
      0.26,
      1.3,
      0.2975,
      1.3375,
      0.335,
      1.375,
      0.3725,
      1.4125,
      0.4075,
      1.45,
      0.445,
      1.4875,
      0.4825,
      1.525,
      0.52,
      1.56,
      0.5575,
      1.5975,
      0.595,
      1.635,
      0.6325,
      1.6725,
      0.67,
      1.71,
      0.705,
      1.7475,
      0.7425,
      1.785,
      0.78,
      1.8225,
      0.8175,
      1.8575,
      0.855,
      1.895,
      0.8925,
      1.9325,
      0.93,
      1.97,
      0.9675
    ],
    "SoftwareVersions": "syngo_MR_B17",
    "SpacingBetweenSlices": 2,
    "StationName": "FMRIFD7T",
    "TaskName": "FullFovNoAttentionTask",
    "TotalReadoutTime": 0.0190001,
    "TxRefAmp": 275,
    "dataset": "ds001555",
    "dcmmeta_affine": [
      [
        -1.9999831914901733,
        4.2201880878778297e-10,
        0.008208253420889378,
        95.76705169677734
      ],
      [
        -0.0013402394251897931,
        1.973159670829773,
        -0.32655632495880127,
        -61.09407043457031
      ],
      [
        0.008098097518086433,
        0.32655906677246094,
        1.9731431007385254,
        -51.69081115722656
      ],
      [
        0.0,
        0.0,
        0.0,
        1.0
      ]
    ],
    "dcmmeta_reorient_transform": [
      [
        0.0,
        -1.0,
        0.0,
        95.0
      ],
      [
        1.0,
        0.0,
        0.0,
        0.0
      ],
      [
        0.0,
        0.0,
        1.0,
        0.0
      ],
      [
        0.0,
        0.0,
        0.0,
        1.0
      ]
    ],
    "dcmmeta_shape": [
      96,
      96,
      54,
      164
    ],
    "dcmmeta_slice_dim": 2,
    "dcmmeta_version": 0.6,
    "global": {
      "const": {
        "AcquisitionMatrix": [
          0,
          96,
          96,
          0
        ],
        "Allergies": "No Known Allergies",
        "AngioFlag": "N",
        "BitsAllocated": 16,
        "BitsStored": 12,
        "Columns": 768,
        "EchoNumbers": 1,
        "EchoTime": 25.0,
        "EchoTrainLength": 1,
        "FlipAngle": 50.0,
        "HighBit": 11,
        "ImageOrientationPatient": [
          0.99999157803662,
          0.00067011969073,
          0.00404904870684,
          2.110094e-10,
          0.98657984636313,
          -0.1632795356133
        ],
        "ImagePositionPatient": [
          -767.761392775,
          -789.78807875724,
          86.335187039869
        ],
        "ImageType": [
          "ORIGINAL",
          "PRIMARY",
          "M",
          "ND",
          "ECHO_00",
          "MOSAIC"
        ],
        "ImagedNucleus": "1H",
        "ImagingFrequency": 297.204973,
        "InPlanePhaseEncodingDirection": "ROW",
        "LargestImagePixelValue": 4095,
        "MRAcquisitionType": "2D",
        "MagneticFieldStrength": 6.98,
        "Manufacturer": "SIEMENS",
        "ManufacturerModelName": "Investigational_Device_7T",
        "Modality": "MR",
        "NumberOfAverages": 1.0,
        "NumberOfPhaseEncodingSteps": 94,
        "PercentPhaseFieldOfView": 100.0,
        "PercentSampling": 100.0,
        "PerformedProcedureStepStartTime": "071100.015000",
        "PhotometricInterpretation": "MONOCHROME2",
        "PixelBandwidth": 2003.0,
        "PixelRepresentation": 0,
        "PixelSpacing": [
          2.0,
          2.0
        ],
        "PositionReferenceIndicator": "",
        "ProcedureCodeSequence": [
          {
            "CodeMeaning": "MRI Procedure Limited",
            "CodeValue": "MI01491",
            "CodingSchemeDesignator": "USA Standard",
            "ContextIdentifier": "4000112205"
          }
        ],
        "ProtocolName": "NIH_EPI_2.0iso_TR2_Run02",
        "ReferencedStudySequence": [
          {
            "ReferencedSOPClassUID": "1.2.840.10008.3.1.2.3.1",
            "ReferencedSOPInstanceUID": "1.2.840.113564.9.1.2723958737.61.2.5000078012"
          }
        ],
        "RepetitionTime": 2000.0,
        "RequestedProcedureCodeSequence": [
          {
            "CodeMeaning": "MRI Procedure Limited",
            "CodeValue": "MI01491",
            "CodingSchemeDesignator": "USA Standard",
            "ContextIdentifier": "4000112205"
          }
        ],
        "RequestingService": "MHED",
        "Rows": 768,
        "SAR": 0.07598745730917,
        "SamplesPerPixel": 1,
        "ScanningSequence": "EP",
        "SequenceName": "epfid2d1_96",
        "SequenceVariant": "SK",
        "SeriesDescription": "NIH_EPI_2.0iso_TR2_Run02",
        "SeriesNumber": 6,
        "SliceLocation": -40.628316438469,
        "SliceThickness": 2.0,
        "SmallestImagePixelValue": 0,
        "SoftwareVersions": "syngo MR B17",
        "SpacingBetweenSlices": 2.0000000184226,
        "TransmitCoilName": "32Ch_Head_7T",
        "VariableFlipAngleFlag": "N",
        "WindowCenterWidthExplanation": "Algo1",
        "dBdt": 0.0
      },
      "slices": {}
    },
    "modality": "bold",
    "run_id": 3,
    "session_id": "08",
    "subject_id": "002",
    "task_id": "FullFovNoAttentionTask",
    "time": {
      "samples": {
        "AcquisitionNumber": [
          1,
          2,
          3,
          4,
          5,
          6,
          7,
          8,
          9,
          10,
          11,
          12,
          13,
          14,
          15,
          16,
          17,
          18,
          19,
          20,
          21,
          22,
          23,
          24,
          25,
          26,
          27,
          28,
          29,
          30,
          31,
          32,
          33,
          34,
          35,
          36,
          37,
          38,
          39,
          40,
          41,
          42,
          43,
          44,
          45,
          46,
          47,
          48,
          49,
          50,
          51,
          52,
          53,
          54,
          55,
          56,
          57,
          58,
          59,
          60,
          61,
          62,
          63,
          64,
          65,
          66,
          67,
          68,
          69,
          70,
          71,
          72,
          73,
          74,
          75,
          76,
          77,
          78,
          79,
          80,
          81,
          82,
          83,
          84,
          85,
          86,
          87,
          88,
          89,
          90,
          91,
          92,
          93,
          94,
          95,
          96,
          97,
          98,
          99,
          100,
          101,
          102,
          103,
          104,
          105,
          106,
          107,
          108,
          109,
          110,
          111,
          112,
          113,
          114,
          115,
          116,
          117,
          118,
          119,
          120,
          121,
          122,
          123,
          124,
          125,
          126,
          127,
          128,
          129,
          130,
          131,
          132,
          133,
          134,
          135,
          136,
          137,
          138,
          139,
          140,
          141,
          142,
          143,
          144,
          145,
          146,
          147,
          148,
          149,
          150,
          151,
          152,
          153,
          154,
          155,
          156,
          157,
          158,
          159,
          160,
          161,
          162,
          163,
          164
        ],
        "AcquisitionTime": [
          "073208.700000",
          "073212.717500",
          "073214.725000",
          "073216.732500",
          "073218.740000",
          "073220.750000",
          "073222.757500",
          "073224.765000",
          "073226.772500",
          "073228.782500",
          "073230.790000",
          "073232.797500",
          "073234.805000",
          "073236.812500",
          "073238.822500",
          "073240.830000",
          "073242.837500",
          "073244.845000",
          "073246.852500",
          "073248.862500",
          "073250.870000",
          "073252.877500",
          "073254.885000",
          "073256.892500",
          "073258.902500",
          "073300.910000",
          "073302.917500",
          "073304.925000",
          "073306.935000",
          "073308.942500",
          "073310.950000",
          "073312.957500",
          "073314.965000",
          "073316.975000",
          "073318.982500",
          "073320.990000",
          "073322.997500",
          "073325.005000",
          "073327.015000",
          "073329.022500",
          "073331.030000",
          "073333.037500",
          "073335.047500",
          "073337.055000",
          "073339.062500",
          "073341.070000",
          "073343.077500",
          "073345.087500",
          "073347.095000",
          "073349.102500",
          "073351.110000",
          "073353.117500",
          "073355.127500",
          "073357.135000",
          "073359.142500",
          "073401.150000",
          "073403.160000",
          "073405.167500",
          "073407.175000",
          "073409.182500",
          "073411.190000",
          "073413.200000",
          "073415.207500",
          "073417.215000",
          "073419.222500",
          "073421.230000",
          "073423.240000",
          "073425.247500",
          "073427.255000",
          "073429.262500",
          "073431.270000",
          "073433.280000",
          "073435.287500",
          "073437.295000",
          "073439.302500",
          "073441.312500",
          "073443.320000",
          "073445.327500",
          "073447.335000",
          "073449.342500",
          "073451.352500",
          "073453.360000",
          "073455.367500",
          "073457.375000",
          "073459.382500",
          "073501.392500",
          "073503.400000",
          "073505.407500",
          "073507.415000",
          "073509.425000",
          "073511.432500",
          "073513.440000",
          "073515.447500",
          "073517.455000",
          "073519.465000",
          "073521.472500",
          "073523.480000",
          "073525.487500",
          "073527.495000",
          "073529.505000",
          "073531.512500",
          "073533.520000",
          "073535.527500",
          "073537.537500",
          "073539.545000",
          "073541.552500",
          "073543.560000",
          "073545.567500",
          "073547.577500",
          "073549.585000",
          "073551.592500",
          "073553.600000",
          "073555.607500",
          "073557.617500",
          "073559.625000",
          "073601.632500",
          "073603.640000",
          "073605.647500",
          "073607.657500",
          "073609.665000",
          "073611.672500",
          "073613.680000",
          "073615.690000",
          "073617.697500",
          "073619.705000",
          "073621.712500",
          "073623.720000",
          "073625.730000",
          "073627.737500",
          "073629.745000",
          "073631.752500",
          "073633.760000",
          "073635.770000",
          "073637.777500",
          "073639.785000",
          "073641.792500",
          "073643.802500",
          "073645.810000",
          "073647.817500",
          "073649.825000",
          "073651.832500",
          "073653.842500",
          "073655.850000",
          "073657.857500",
          "073659.865000",
          "073701.872500",
          "073703.882500",
          "073705.890000",
          "073707.897500",
          "073709.905000",
          "073711.915000",
          "073713.922500",
          "073715.930000",
          "073717.937500",
          "073719.945000",
          "073721.955000",
          "073723.962500",
          "073725.970000",
          "073727.977500",
          "073729.985000",
          "073731.995000",
          "073734.002500",
          "073736.010000",
          "073738.017500"
        ],
        "ContentTime": [
          "073301.109000",
          "073301.125000",
          "073301.125000",
          "073301.125000",
          "073301.125000",
          "073301.125000",
          "073301.125000",
          "073301.140000",
          "073301.140000",
          "073301.140000",
          "073301.140000",
          "073301.140000",
          "073301.140000",
          "073301.140000",
          "073301.156000",
          "073301.156000",
          "073301.156000",
          "073301.156000",
          "073301.156000",
          "073301.156000",
          "073301.156000",
          "073301.171000",
          "073301.171000",
          "073301.171000",
          "073301.171000",
          "073341.109000",
          "073341.109000",
          "073341.109000",
          "073341.109000",
          "073341.109000",
          "073341.125000",
          "073341.125000",
          "073341.125000",
          "073341.125000",
          "073341.140000",
          "073341.140000",
          "073341.140000",
          "073341.140000",
          "073341.156000",
          "073341.156000",
          "073341.156000",
          "073341.156000",
          "073341.156000",
          "073341.156000",
          "073341.156000",
          "073421.109000",
          "073421.109000",
          "073421.109000",
          "073421.109000",
          "073421.109000",
          "073421.109000",
          "073421.125000",
          "073421.125000",
          "073421.125000",
          "073421.125000",
          "073421.125000",
          "073421.125000",
          "073421.140000",
          "073421.140000",
          "073421.140000",
          "073421.140000",
          "073421.140000",
          "073421.140000",
          "073421.140000",
          "073421.156000",
          "073501.109000",
          "073501.109000",
          "073501.109000",
          "073501.109000",
          "073501.109000",
          "073501.109000",
          "073501.125000",
          "073501.125000",
          "073501.125000",
          "073501.140000",
          "073501.140000",
          "073501.140000",
          "073501.140000",
          "073501.140000",
          "073501.140000",
          "073501.140000",
          "073501.156000",
          "073501.156000",
          "073501.156000",
          "073501.156000",
          "073541.109000",
          "073541.109000",
          "073541.109000",
          "073541.109000",
          "073541.109000",
          "073541.109000",
          "073541.125000",
          "073541.125000",
          "073541.125000",
          "073541.125000",
          "073541.125000",
          "073541.140000",
          "073541.140000",
          "073541.140000",
          "073541.140000",
          "073541.140000",
          "073541.140000",
          "073541.140000",
          "073541.156000",
          "073541.156000",
          "073621.109000",
          "073621.109000",
          "073621.109000",
          "073621.109000",
          "073621.125000",
          "073621.125000",
          "073621.125000",
          "073621.125000",
          "073621.140000",
          "073621.140000",
          "073621.140000",
          "073621.140000",
          "073621.140000",
          "073621.140000",
          "073621.140000",
          "073621.156000",
          "073621.156000",
          "073621.156000",
          "073621.156000",
          "073621.156000",
          "073701.109000",
          "073701.109000",
          "073701.109000",
          "073701.109000",
          "073701.109000",
          "073701.109000",
          "073701.125000",
          "073701.125000",
          "073701.125000",
          "073701.125000",
          "073701.125000",
          "073701.140000",
          "073701.140000",
          "073701.140000",
          "073701.140000",
          "073701.140000",
          "073701.140000",
          "073701.156000",
          "073701.156000",
          "073701.156000",
          "073737.953000",
          "073737.953000",
          "073737.968000",
          "073737.984000",
          "073738.000000",
          "073738.000000",
          "073738.000000",
          "073738.000000",
          "073738.015000",
          "073738.015000",
          "073738.015000",
          "073738.015000",
          "073738.015000",
          "073738.015000",
          "073738.031000",
          "073738.031000",
          "073738.031000",
          "073738.031000",
          "073738.031000"
        ],
        "InstanceCreationTime": [
          "073301.109000",
          "073301.125000",
          "073301.125000",
          "073301.125000",
          "073301.125000",
          "073301.125000",
          "073301.125000",
          "073301.140000",
          "073301.140000",
          "073301.140000",
          "073301.140000",
          "073301.140000",
          "073301.140000",
          "073301.140000",
          "073301.156000",
          "073301.156000",
          "073301.156000",
          "073301.156000",
          "073301.156000",
          "073301.156000",
          "073301.156000",
          "073301.171000",
          "073301.171000",
          "073301.171000",
          "073301.171000",
          "073341.109000",
          "073341.109000",
          "073341.109000",
          "073341.109000",
          "073341.109000",
          "073341.125000",
          "073341.125000",
          "073341.125000",
          "073341.125000",
          "073341.140000",
          "073341.140000",
          "073341.140000",
          "073341.140000",
          "073341.156000",
          "073341.156000",
          "073341.156000",
          "073341.156000",
          "073341.156000",
          "073341.156000",
          "073341.156000",
          "073421.109000",
          "073421.109000",
          "073421.109000",
          "073421.109000",
          "073421.109000",
          "073421.109000",
          "073421.125000",
          "073421.125000",
          "073421.125000",
          "073421.125000",
          "073421.125000",
          "073421.125000",
          "073421.140000",
          "073421.140000",
          "073421.140000",
          "073421.140000",
          "073421.140000",
          "073421.140000",
          "073421.140000",
          "073421.156000",
          "073501.109000",
          "073501.109000",
          "073501.109000",
          "073501.109000",
          "073501.109000",
          "073501.109000",
          "073501.125000",
          "073501.125000",
          "073501.125000",
          "073501.140000",
          "073501.140000",
          "073501.140000",
          "073501.140000",
          "073501.140000",
          "073501.140000",
          "073501.140000",
          "073501.156000",
          "073501.156000",
          "073501.156000",
          "073501.156000",
          "073541.109000",
          "073541.109000",
          "073541.109000",
          "073541.109000",
          "073541.109000",
          "073541.109000",
          "073541.125000",
          "073541.125000",
          "073541.125000",
          "073541.125000",
          "073541.125000",
          "073541.140000",
          "073541.140000",
          "073541.140000",
          "073541.140000",
          "073541.140000",
          "073541.140000",
          "073541.140000",
          "073541.156000",
          "073541.156000",
          "073621.109000",
          "073621.109000",
          "073621.109000",
          "073621.109000",
          "073621.125000",
          "073621.125000",
          "073621.125000",
          "073621.125000",
          "073621.140000",
          "073621.140000",
          "073621.140000",
          "073621.140000",
          "073621.140000",
          "073621.140000",
          "073621.140000",
          "073621.156000",
          "073621.156000",
          "073621.156000",
          "073621.156000",
          "073621.156000",
          "073701.109000",
          "073701.109000",
          "073701.109000",
          "073701.109000",
          "073701.109000",
          "073701.109000",
          "073701.125000",
          "073701.125000",
          "073701.125000",
          "073701.125000",
          "073701.125000",
          "073701.140000",
          "073701.140000",
          "073701.140000",
          "073701.140000",
          "073701.140000",
          "073701.140000",
          "073701.156000",
          "073701.156000",
          "073701.156000",
          "073737.953000",
          "073737.953000",
          "073737.968000",
          "073737.984000",
          "073738.000000",
          "073738.000000",
          "073738.000000",
          "073738.000000",
          "073738.015000",
          "073738.015000",
          "073738.015000",
          "073738.015000",
          "073738.015000",
          "073738.015000",
          "073738.031000",
          "073738.031000",
          "073738.031000",
          "073738.031000",
          "073738.031000"
        ],
        "InstanceNumber": [
          1,
          2,
          3,
          4,
          5,
          6,
          7,
          8,
          9,
          10,
          11,
          12,
          13,
          14,
          15,
          16,
          17,
          18,
          19,
          20,
          21,
          22,
          23,
          24,
          25,
          26,
          27,
          28,
          29,
          30,
          31,
          32,
          33,
          34,
          35,
          36,
          37,
          38,
          39,
          40,
          41,
          42,
          43,
          44,
          45,
          46,
          47,
          48,
          49,
          50,
          51,
          52,
          53,
          54,
          55,
          56,
          57,
          58,
          59,
          60,
          61,
          62,
          63,
          64,
          65,
          66,
          67,
          68,
          69,
          70,
          71,
          72,
          73,
          74,
          75,
          76,
          77,
          78,
          79,
          80,
          81,
          82,
          83,
          84,
          85,
          86,
          87,
          88,
          89,
          90,
          91,
          92,
          93,
          94,
          95,
          96,
          97,
          98,
          99,
          100,
          101,
          102,
          103,
          104,
          105,
          106,
          107,
          108,
          109,
          110,
          111,
          112,
          113,
          114,
          115,
          116,
          117,
          118,
          119,
          120,
          121,
          122,
          123,
          124,
          125,
          126,
          127,
          128,
          129,
          130,
          131,
          132,
          133,
          134,
          135,
          136,
          137,
          138,
          139,
          140,
          141,
          142,
          143,
          144,
          145,
          146,
          147,
          148,
          149,
          150,
          151,
          152,
          153,
          154,
          155,
          156,
          157,
          158,
          159,
          160,
          161,
          162,
          163,
          164
        ],
        "WindowCenter": [
          1035.0,
          1035.0,
          1035.0,
          1035.0,
          1034.0,
          1032.0,
          1034.0,
          1037.0,
          1038.0,
          1036.0,
          1035.0,
          1036.0,
          1034.0,
          1034.0,
          1034.0,
          1033.0,
          1036.0,
          1041.0,
          1039.0,
          1037.0,
          1038.0,
          1036.0,
          1040.0,
          1044.0,
          1037.0,
          1036.0,
          1041.0,
          1043.0,
          1041.0,
          1037.0,
          1037.0,
          1039.0,
          1037.0,
          1036.0,
          1032.0,
          1031.0,
          1032.0,
          1034.0,
          1036.0,
          1034.0,
          1034.0,
          1037.0,
          1037.0,
          1036.0,
          1035.0,
          1037.0,
          1041.0,
          1041.0,
          1040.0,
          1039.0,
          1037.0,
          1038.0,
          1041.0,
          1039.0,
          1038.0,
          1034.0,
          1033.0,
          1035.0,
          1034.0,
          1034.0,
          1038.0,
          1037.0,
          1038.0,
          1039.0,
          1036.0,
          1036.0,
          1037.0,
          1037.0,
          1035.0,
          1036.0,
          1036.0,
          1036.0,
          1040.0,
          1043.0,
          1040.0,
          1039.0,
          1042.0,
          1041.0,
          1038.0,
          1036.0,
          1036.0,
          1037.0,
          1036.0,
          1038.0,
          1037.0,
          1037.0,
          1037.0,
          1037.0,
          1042.0,
          1042.0,
          1041.0,
          1038.0,
          1037.0,
          1039.0,
          1038.0,
          1037.0,
          1037.0,
          1039.0,
          1039.0,
          1034.0,
          1034.0,
          1033.0,
          1037.0,
          1040.0,
          1040.0,
          1039.0,
          1042.0,
          1042.0,
          1039.0,
          1039.0,
          1036.0,
          1033.0,
          1032.0,
          1032.0,
          1034.0,
          1034.0,
          1034.0,
          1035.0,
          1035.0,
          1036.0,
          1037.0,
          1037.0,
          1039.0,
          1040.0,
          1039.0,
          1037.0,
          1037.0,
          1039.0,
          1039.0,
          1040.0,
          1044.0,
          1042.0,
          1043.0,
          1042.0,
          1041.0,
          1038.0,
          1037.0,
          1036.0,
          1036.0,
          1036.0,
          1033.0,
          1034.0,
          1034.0,
          1037.0,
          1039.0,
          1036.0,
          1037.0,
          1036.0,
          1037.0,
          1038.0,
          1038.0,
          1040.0,
          1039.0,
          1037.0,
          1035.0,
          1034.0,
          1035.0,
          1034.0,
          1035.0,
          1036.0,
          1035.0,
          1038.0,
          1037.0,
          1039.0
        ],
        "WindowWidth": [
          2740.0,
          2740.0,
          2739.0,
          2735.0,
          2724.0,
          2725.0,
          2730.0,
          2744.0,
          2743.0,
          2739.0,
          2739.0,
          2745.0,
          2737.0,
          2725.0,
          2728.0,
          2728.0,
          2742.0,
          2748.0,
          2737.0,
          2729.0,
          2735.0,
          2741.0,
          2758.0,
          2754.0,
          2738.0,
          2740.0,
          2758.0,
          2756.0,
          2748.0,
          2740.0,
          2742.0,
          2756.0,
          2743.0,
          2729.0,
          2719.0,
          2716.0,
          2718.0,
          2727.0,
          2728.0,
          2726.0,
          2729.0,
          2745.0,
          2734.0,
          2733.0,
          2733.0,
          2738.0,
          2757.0,
          2748.0,
          2740.0,
          2741.0,
          2737.0,
          2749.0,
          2764.0,
          2748.0,
          2744.0,
          2724.0,
          2718.0,
          2723.0,
          2722.0,
          2723.0,
          2738.0,
          2743.0,
          2745.0,
          2740.0,
          2733.0,
          2732.0,
          2741.0,
          2735.0,
          2734.0,
          2729.0,
          2731.0,
          2735.0,
          2748.0,
          2753.0,
          2746.0,
          2750.0,
          2762.0,
          2754.0,
          2746.0,
          2732.0,
          2733.0,
          2732.0,
          2728.0,
          2742.0,
          2736.0,
          2735.0,
