{
  "aor": 0.0006988414634146341,
  "aqi": 0.006204665914634146,
  "bids_meta": {
    "AcquisitionMatrixPE": 96,
    "AcquisitionNumber": 1,
    "AcquisitionTime": "10:46:24.240000",
    "BandwidthPerPixelPhaseEncode": 52.083,
    "BaseResolution": 96,
    "BodyPartExamined": "HEAD",
    "ConversionSoftware": "dcm2niix",
    "ConversionSoftwareVersion": "v1.0.20180622 GCC6.3.0",
    "DerivedVendorReportedEchoSpacing": 0.000600004,
    "DeviceSerialNumber": "18926",
    "DwellTime": 2.6e-06,
    "EchoTime": 0.025,
    "EffectiveEchoSpacing": 0.000200001,
    "FlipAngle": 50,
    "ImageOrientationPatientDICOM": [
      0.999992,
      0.000357506,
      0.00408853,
      2.09192e-10,
      0.996199,
      -0.0871089
    ],
    "ImageType": [
      "ORIGINAL",
      "PRIMARY",
      "M",
      "ND",
      "ECHO",
      "00",
      "MOSAIC"
    ],
    "InPlanePhaseEncodingDirectionDICOM": "ROW",
    "InstitutionName": "NIMH",
    "InstitutionalDepartmentName": "Department",
    "MRAcquisitionType": "2D",
    "MagneticFieldStrength": 6.98,
    "Manufacturer": "Siemens",
    "ManufacturersModelName": "Investigational_Device_7T",
    "Modality": "MR",
    "ParallelReductionFactorInPlane": 3,
    "PartialFourier": 1,
    "PatientPosition": "HFS",
    "PercentPhaseFOV": 100,
    "PhaseEncodingDirection": "i",
    "PhaseEncodingSteps": 94,
    "PhaseResolution": 1,
    "PixelBandwidth": 2003,
    "ProcedureStepDescription": "UserProtocols_gonzalez",
    "ProtocolName": "NIH_EPI_2.0iso_TR2_Run03",
    "PulseSequenceDetails": "%CustomerSeq%_inati_nih_epi",
    "ReceiveCoilName": "32Ch_Head_7T",
    "ReconMatrixPE": 96,
    "RepetitionTime": 2,
    "SAR": 0.0867394,
    "ScanningSequence": "EP",
    "SequenceName": "epfid2d1_96",
    "SequenceVariant": "SK",
    "SeriesDescription": "NIH_EPI_2.0iso_TR2_Run03",
    "SeriesNumber": 7,
    "ShimSetting": [
      -98,
      141,
      1026,
      2156,
      -114,
      641,
      159,
      -359
    ],
    "SliceThickness": 2,
    "SliceTiming": [
      1.0025,
      0,
      1.04,
      0.0375,
      1.0775,
      0.0725,
      1.115,
      0.11,
      1.1525,
      0.1475,
      1.19,
      0.185,
      1.225,
      0.2225,
      1.2625,
      0.26,
      1.3,
      0.2975,
      1.3375,
      0.335,
      1.375,
      0.37,
      1.4125,
      0.4075,
      1.45,
      0.445,
      1.4875,
      0.4825,
      1.5225,
      0.52,
      1.56,
      0.5575,
      1.5975,
      0.595,
      1.635,
      0.6325,
      1.6725,
      0.6675,
      1.71,
      0.705,
      1.7475,
      0.7425,
      1.785,
      0.78,
      1.82,
      0.8175,
      1.8575,
      0.855,
      1.895,
      0.8925,
      1.9325,
      0.93,
      1.97,
      0.965
    ],
    "SoftwareVersions": "syngo_MR_B17",
    "SpacingBetweenSlices": 2,
    "StationName": "FMRIFD7T",
    "TaskName": "FullFovAttentionTask",
    "TotalReadoutTime": 0.0190001,
    "TxRefAmp": 271,
    "dataset": "ds001555",
    "dcmmeta_affine": [
      [
        -1.9999831914901733,
        4.183849933170336e-10,
        0.008208253420889378,
        95.76705169677734
      ],
      [
        -0.00071501120692119,
        1.9923975467681885,
        -0.17421627044677734,
        -67.41278839111328
      ],
      [
        0.00817705225199461,
        0.17421773076057434,
        1.9923808574676514,
        -48.4176139831543
      ],
      [
        0.0,
        0.0,
        0.0,
        1.0
      ]
    ],
    "dcmmeta_reorient_transform": [
      [
        0.0,
        -1.0,
        0.0,
        95.0
      ],
      [
        1.0,
        0.0,
        0.0,
        0.0
      ],
      [
        0.0,
        0.0,
        1.0,
        0.0
      ],
      [
        0.0,
        0.0,
        0.0,
        1.0
      ]
    ],
    "dcmmeta_shape": [
      96,
      96,
      54,
      164
    ],
    "dcmmeta_slice_dim": 2,
    "dcmmeta_version": 0.6,
    "global": {
      "const": {
        "AcquisitionMatrix": [
          0,
          96,
          96,
          0
        ],
        "AngioFlag": "N",
        "BitsAllocated": 16,
        "BitsStored": 12,
        "BodyPartExamined": "HEAD",
        "Columns": 768,
        "EchoNumbers": 1,
        "EchoTime": 25.0,
        "EchoTrainLength": 1,
        "FlipAngle": 50.0,
        "HighBit": 11,
        "ImageOrientationPatient": [
          0.99999157803689,
          0.00035750560761,
          0.00408852602124,
          2.091925e-10,
          0.99619879815356,
          -0.087108866124
        ],
        "ImagePositionPatient": [
          -767.76139277381,
          -791.55081700269,
          23.922737653976
        ],
        "ImageType": [
          "ORIGINAL",
          "PRIMARY",
          "M",
          "ND",
          "ECHO_00",
          "MOSAIC"
        ],
        "ImagedNucleus": "1H",
        "ImagingFrequency": 297.204947,
        "InPlanePhaseEncodingDirection": "ROW",
        "LargestImagePixelValue": 4095,
        "MRAcquisitionType": "2D",
        "MagneticFieldStrength": 6.98,
        "Manufacturer": "SIEMENS",
        "ManufacturerModelName": "Investigational_Device_7T",
        "Modality": "MR",
        "NumberOfAverages": 1.0,
        "NumberOfPhaseEncodingSteps": 94,
        "PercentPhaseFieldOfView": 100.0,
        "PercentSampling": 100.0,
        "PerformedProcedureStepStartTime": "101729.015000",
        "PhotometricInterpretation": "MONOCHROME2",
        "PixelBandwidth": 2003.0,
        "PixelRepresentation": 0,
        "PixelSpacing": [
          2.0,
          2.0
        ],
        "PositionReferenceIndicator": "",
        "ProtocolName": "NIH_EPI_2.0iso_TR2_Run03",
        "RepetitionTime": 2000.0,
        "Rows": 768,
        "SAR": 0.08673938405539,
        "SamplesPerPixel": 1,
        "ScanningSequence": "EP",
        "SequenceName": "epfid2d1_96",
        "SequenceVariant": "SK",
        "SeriesDescription": "NIH_EPI_2.0iso_TR2_Run03",
        "SeriesNumber": 7,
        "SliceLocation": -41.967921689492,
        "SliceThickness": 2.0,
        "SmallestImagePixelValue": 0,
        "SoftwareVersions": "syngo MR B17",
        "SpacingBetweenSlices": 2.0000000115774,
        "TransmitCoilName": "32Ch_Head_7T",
        "VariableFlipAngleFlag": "N",
        "WindowCenterWidthExplanation": "Algo1",
        "dBdt": 0.0
      },
      "slices": {}
    },
    "modality": "bold",
    "run_id": 4,
    "session_id": "05",
    "subject_id": "003",
    "task_id": "FullFovAttentionTask",
    "time": {
      "samples": {
        "AcquisitionNumber": [
          1,
          2,
          3,
          4,
          5,
          6,
          7,
          8,
          9,
          10,
          11,
          12,
          13,
          14,
          15,
          16,
          17,
          18,
          19,
          20,
          21,
          22,
          23,
          24,
          25,
          26,
          27,
          28,
          29,
          30,
          31,
          32,
          33,
          34,
          35,
          36,
          37,
          38,
          39,
          40,
          41,
          42,
          43,
          44,
          45,
          46,
          47,
          48,
          49,
          50,
          51,
          52,
          53,
          54,
          55,
          56,
          57,
          58,
          59,
          60,
          61,
          62,
          63,
          64,
          65,
          66,
          67,
          68,
          69,
          70,
          71,
          72,
          73,
          74,
          75,
          76,
          77,
          78,
          79,
          80,
          81,
          82,
          83,
          84,
          85,
          86,
          87,
          88,
          89,
          90,
          91,
          92,
          93,
          94,
          95,
          96,
          97,
          98,
          99,
          100,
          101,
          102,
          103,
          104,
          105,
          106,
          107,
          108,
          109,
          110,
          111,
          112,
          113,
          114,
          115,
          116,
          117,
          118,
          119,
          120,
          121,
          122,
          123,
          124,
          125,
          126,
          127,
          128,
          129,
          130,
          131,
          132,
          133,
          134,
          135,
          136,
          137,
          138,
          139,
          140,
          141,
          142,
          143,
          144,
          145,
          146,
          147,
          148,
          149,
          150,
          151,
          152,
          153,
          154,
          155,
          156,
          157,
          158,
          159,
          160,
          161,
          162,
          163,
          164
        ],
        "AcquisitionTime": [
          "104624.240000",
          "104628.257500",
          "104630.265000",
          "104632.272500",
          "104634.280000",
          "104636.290000",
          "104638.297500",
          "104640.305000",
          "104642.312500",
          "104644.320000",
          "104646.330000",
          "104648.337500",
          "104650.345000",
          "104652.352500",
          "104654.360000",
          "104656.370000",
          "104658.377500",
          "104700.385000",
          "104702.392500",
          "104704.402500",
          "104706.410000",
          "104708.417500",
          "104710.425000",
          "104712.432500",
          "104714.442500",
          "104716.450000",
          "104718.457500",
          "104720.465000",
          "104722.472500",
          "104724.482500",
          "104726.490000",
          "104728.497500",
          "104730.505000",
          "104732.512500",
          "104734.522500",
          "104736.530000",
          "104738.537500",
          "104740.545000",
          "104742.555000",
          "104744.562500",
          "104746.570000",
          "104748.577500",
          "104750.585000",
          "104752.595000",
          "104754.602500",
          "104756.610000",
          "104758.617500",
          "104800.625000",
          "104802.635000",
          "104804.642500",
          "104806.650000",
          "104808.657500",
          "104810.667500",
          "104812.675000",
          "104814.682500",
          "104816.690000",
          "104818.697500",
          "104820.707500",
          "104822.715000",
          "104824.722500",
          "104826.730000",
          "104828.737500",
          "104830.747500",
          "104832.755000",
          "104834.762500",
          "104836.770000",
          "104838.780000",
          "104840.787500",
          "104842.795000",
          "104844.802500",
          "104846.810000",
          "104848.820000",
          "104850.827500",
          "104852.835000",
          "104854.842500",
          "104856.850000",
          "104858.860000",
          "104900.867500",
          "104902.875000",
          "104904.882500",
          "104906.890000",
          "104908.900000",
          "104910.907500",
          "104912.915000",
          "104914.922500",
          "104916.932500",
          "104918.940000",
          "104920.947500",
          "104922.955000",
          "104924.962500",
          "104926.972500",
          "104928.980000",
          "104930.987500",
          "104932.995000",
          "104935.002500",
          "104937.012500",
          "104939.020000",
          "104941.027500",
          "104943.035000",
          "104945.045000",
          "104947.052500",
          "104949.060000",
          "104951.067500",
          "104953.075000",
          "104955.085000",
          "104957.092500",
          "104959.100000",
          "105001.107500",
          "105003.115000",
          "105005.125000",
          "105007.132500",
          "105009.140000",
          "105011.147500",
          "105013.157500",
          "105015.165000",
          "105017.172500",
          "105019.180000",
          "105021.187500",
          "105023.197500",
          "105025.205000",
          "105027.212500",
          "105029.220000",
          "105031.227500",
          "105033.237500",
          "105035.245000",
          "105037.252500",
          "105039.260000",
          "105041.267500",
          "105043.277500",
          "105045.285000",
          "105047.292500",
          "105049.300000",
          "105051.310000",
          "105053.317500",
          "105055.325000",
          "105057.332500",
          "105059.340000",
          "105101.350000",
          "105103.357500",
          "105105.365000",
          "105107.372500",
          "105109.380000",
          "105111.390000",
          "105113.397500",
          "105115.405000",
          "105117.412500",
          "105119.422500",
          "105121.430000",
          "105123.437500",
          "105125.445000",
          "105127.452500",
          "105129.462500",
          "105131.470000",
          "105133.477500",
          "105135.485000",
          "105137.492500",
          "105139.502500",
          "105141.510000",
          "105143.517500",
          "105145.525000",
          "105147.535000",
          "105149.542500",
          "105151.550000",
          "105153.557500"
        ],
        "ContentTime": [
          "104722.281000",
          "104722.281000",
          "104722.281000",
          "104722.296000",
          "104722.296000",
          "104722.296000",
          "104722.296000",
          "104722.296000",
          "104722.312000",
          "104722.312000",
          "104722.312000",
          "104722.312000",
          "104722.312000",
          "104722.312000",
          "104722.328000",
          "104722.328000",
          "104722.328000",
          "104722.328000",
          "104722.328000",
          "104722.343000",
          "104722.343000",
          "104722.343000",
          "104722.343000",
          "104722.343000",
          "104722.343000",
          "104722.359000",
          "104722.359000",
          "104722.359000",
          "104802.265000",
          "104802.265000",
          "104802.281000",
          "104802.281000",
          "104802.281000",
          "104802.281000",
          "104802.281000",
          "104802.281000",
          "104802.296000",
          "104802.296000",
          "104802.296000",
          "104802.296000",
          "104802.296000",
          "104802.296000",
          "104802.296000",
          "104802.312000",
          "104802.312000",
          "104802.312000",
          "104802.312000",
          "104802.312000",
          "104842.265000",
          "104842.265000",
          "104842.281000",
          "104842.281000",
          "104842.281000",
          "104842.281000",
          "104842.281000",
          "104842.281000",
          "104842.296000",
          "104842.296000",
          "104842.296000",
          "104842.296000",
          "104842.296000",
          "104842.296000",
          "104842.296000",
          "104842.312000",
          "104842.312000",
          "104842.312000",
          "104842.312000",
          "104842.312000",
          "104922.265000",
          "104922.265000",
          "104922.281000",
          "104922.281000",
          "104922.281000",
          "104922.281000",
          "104922.281000",
          "104922.281000",
          "104922.296000",
          "104922.296000",
          "104922.296000",
          "104922.296000",
          "104922.296000",
          "104922.296000",
          "104922.296000",
          "104922.312000",
          "104922.312000",
          "104922.312000",
          "104922.312000",
          "104922.312000",
          "105002.265000",
          "105002.265000",
          "105002.281000",
          "105002.281000",
          "105002.281000",
          "105002.281000",
          "105002.296000",
          "105002.296000",
          "105002.296000",
          "105002.296000",
          "105002.296000",
          "105002.296000",
          "105002.312000",
          "105002.312000",
          "105002.312000",
          "105002.312000",
          "105002.312000",
          "105002.312000",
          "105002.312000",
          "105002.328000",
          "105042.265000",
          "105042.265000",
          "105042.281000",
          "105042.281000",
          "105042.281000",
          "105042.281000",
          "105042.281000",
          "105042.281000",
          "105042.296000",
          "105042.296000",
          "105042.296000",
          "105042.296000",
          "105042.296000",
          "105042.296000",
          "105042.312000",
          "105042.312000",
          "105042.312000",
          "105042.312000",
          "105042.312000",
          "105042.312000",
          "105122.265000",
          "105122.281000",
          "105122.281000",
          "105122.281000",
          "105122.281000",
          "105122.281000",
          "105122.281000",
          "105122.296000",
          "105122.296000",
          "105122.296000",
          "105122.296000",
          "105122.296000",
          "105122.296000",
          "105122.296000",
          "105122.312000",
          "105122.312000",
          "105122.312000",
          "105122.312000",
          "105122.328000",
          "105122.328000",
          "105153.734000",
          "105153.734000",
          "105153.734000",
          "105153.734000",
          "105153.750000",
          "105153.750000",
          "105153.750000",
          "105153.750000",
          "105153.750000",
          "105153.750000",
          "105153.765000",
          "105153.765000",
          "105153.781000",
          "105153.781000",
          "105153.781000",
          "105153.781000"
        ],
        "InstanceCreationTime": [
          "104722.281000",
          "104722.281000",
          "104722.281000",
          "104722.296000",
          "104722.296000",
          "104722.296000",
          "104722.296000",
          "104722.296000",
          "104722.312000",
          "104722.312000",
          "104722.312000",
          "104722.312000",
          "104722.312000",
          "104722.312000",
          "104722.328000",
          "104722.328000",
          "104722.328000",
          "104722.328000",
          "104722.328000",
          "104722.343000",
          "104722.343000",
          "104722.343000",
          "104722.343000",
          "104722.343000",
          "104722.343000",
          "104722.359000",
          "104722.359000",
          "104722.359000",
          "104802.265000",
          "104802.265000",
          "104802.281000",
          "104802.281000",
          "104802.281000",
          "104802.281000",
          "104802.281000",
          "104802.281000",
          "104802.296000",
          "104802.296000",
          "104802.296000",
          "104802.296000",
          "104802.296000",
          "104802.296000",
          "104802.296000",
          "104802.312000",
          "104802.312000",
          "104802.312000",
          "104802.312000",
          "104802.312000",
          "104842.265000",
          "104842.265000",
          "104842.281000",
          "104842.281000",
          "104842.281000",
          "104842.281000",
          "104842.281000",
          "104842.281000",
          "104842.296000",
          "104842.296000",
          "104842.296000",
          "104842.296000",
          "104842.296000",
          "104842.296000",
          "104842.296000",
          "104842.312000",
          "104842.312000",
          "104842.312000",
          "104842.312000",
          "104842.312000",
          "104922.265000",
          "104922.265000",
          "104922.281000",
          "104922.281000",
          "104922.281000",
          "104922.281000",
          "104922.281000",
          "104922.281000",
          "104922.296000",
          "104922.296000",
          "104922.296000",
          "104922.296000",
          "104922.296000",
          "104922.296000",
          "104922.296000",
          "104922.312000",
          "104922.312000",
          "104922.312000",
          "104922.312000",
          "104922.312000",
          "105002.265000",
          "105002.265000",
          "105002.281000",
          "105002.281000",
          "105002.281000",
          "105002.281000",
          "105002.296000",
          "105002.296000",
          "105002.296000",
          "105002.296000",
          "105002.296000",
          "105002.296000",
          "105002.312000",
          "105002.312000",
          "105002.312000",
          "105002.312000",
          "105002.312000",
          "105002.312000",
          "105002.312000",
          "105002.328000",
          "105042.265000",
          "105042.265000",
          "105042.281000",
          "105042.281000",
          "105042.281000",
          "105042.281000",
          "105042.281000",
          "105042.281000",
          "105042.296000",
          "105042.296000",
          "105042.296000",
          "105042.296000",
          "105042.296000",
          "105042.296000",
          "105042.312000",
          "105042.312000",
          "105042.312000",
          "105042.312000",
          "105042.312000",
          "105042.312000",
          "105122.265000",
          "105122.281000",
          "105122.281000",
          "105122.281000",
          "105122.281000",
          "105122.281000",
          "105122.281000",
          "105122.296000",
          "105122.296000",
          "105122.296000",
          "105122.296000",
          "105122.296000",
          "105122.296000",
          "105122.296000",
          "105122.312000",
          "105122.312000",
          "105122.312000",
          "105122.312000",
          "105122.328000",
          "105122.328000",
          "105153.734000",
          "105153.734000",
          "105153.734000",
          "105153.734000",
          "105153.750000",
          "105153.750000",
          "105153.750000",
          "105153.750000",
          "105153.750000",
          "105153.750000",
          "105153.765000",
          "105153.765000",
          "105153.781000",
          "105153.781000",
          "105153.781000",
          "105153.781000"
        ],
        "InstanceNumber": [
          1,
          2,
          3,
          4,
          5,
          6,
          7,
          8,
          9,
          10,
          11,
          12,
          13,
          14,
          15,
          16,
          17,
          18,
          19,
          20,
          21,
          22,
          23,
          24,
          25,
          26,
          27,
          28,
          29,
          30,
          31,
          32,
          33,
          34,
          35,
          36,
          37,
          38,
          39,
          40,
          41,
          42,
          43,
          44,
          45,
          46,
          47,
          48,
          49,
          50,
          51,
          52,
          53,
          54,
          55,
          56,
          57,
          58,
          59,
          60,
          61,
          62,
          63,
          64,
          65,
          66,
          67,
          68,
          69,
          70,
          71,
          72,
          73,
          74,
          75,
          76,
          77,
          78,
          79,
          80,
          81,
          82,
          83,
          84,
          85,
          86,
          87,
          88,
          89,
          90,
          91,
          92,
          93,
          94,
          95,
          96,
          97,
          98,
          99,
          100,
          101,
          102,
          103,
          104,
          105,
          106,
          107,
          108,
          109,
          110,
          111,
          112,
          113,
          114,
          115,
          116,
          117,
          118,
          119,
          120,
          121,
          122,
          123,
          124,
          125,
          126,
          127,
          128,
          129,
          130,
          131,
          132,
          133,
          134,
          135,
          136,
          137,
          138,
          139,
          140,
          141,
          142,
          143,
          144,
          145,
          146,
          147,
          148,
          149,
          150,
          151,
          152,
          153,
          154,
          155,
          156,
          157,
          158,
          159,
          160,
          161,
          162,
          163,
          164
        ],
        "WindowCenter": [
          948.0,
          948.0,
          948.0,
          949.0,
          950.0,
          948.0,
          948.0,
          948.0,
          949.0,
          949.0,
          948.0,
          948.0,
          948.0,
          948.0,
          949.0,
          948.0,
          947.0,
          947.0,
          946.0,
          947.0,
          947.0,
          946.0,
          947.0,
          947.0,
          947.0,
          947.0,
          947.0,
          947.0,
          947.0,
          947.0,
          947.0,
          947.0,
          947.0,
          946.0,
          947.0,
          948.0,
          947.0,
          947.0,
          948.0,
          948.0,
          948.0,
          946.0,
          946.0,
          947.0,
          948.0,
          947.0,
          946.0,
          946.0,
          947.0,
          947.0,
          947.0,
          946.0,
          947.0,
          948.0,
          947.0,
          946.0,
          947.0,
          947.0,
          948.0,
          947.0,
          947.0,
          947.0,
          947.0,
          947.0,
          947.0,
          947.0,
          947.0,
          946.0,
          945.0,
          946.0,
          946.0,
          947.0,
          949.0,
          946.0,
          947.0,
          947.0,
          947.0,
          946.0,
          946.0,
          947.0,
          947.0,
          947.0,
          947.0,
          946.0,
          946.0,
          947.0,
          946.0,
          945.0,
          945.0,
          946.0,
          947.0,
          946.0,
          945.0,
          945.0,
          947.0,
          948.0,
          947.0,
          946.0,
          946.0,
          947.0,
          947.0,
          946.0,
          945.0,
          946.0,
          946.0,
          946.0,
          945.0,
          945.0,
          945.0,
          945.0,
          946.0,
          947.0,
          946.0,
          945.0,
          945.0,
          946.0,
          946.0,
          946.0,
          946.0,
          945.0,
          945.0,
          946.0,
          947.0,
          946.0,
          946.0,
          946.0,
          945.0,
          946.0,
          947.0,
          947.0,
          946.0,
          945.0,
          945.0,
          946.0,
          946.0,
          945.0,
          945.0,
          946.0,
          946.0,
          946.0,
          946.0,
          947.0,
          946.0,
          945.0,
          945.0,
          946.0,
          945.0,
          945.0,
          946.0,
          945.0,
          945.0,
          946.0,
          945.0,
          945.0,
          945.0,
          946.0,
          946.0,
          946.0,
          946.0,
          947.0,
          946.0,
          945.0,
          945.0,
          945.0
        ],
        "WindowWidth": [
          2539.0,
          2536.0,
          2540.0,
          2545.0,
          2544.0,
          2541.0,
          2540.0,
          2545.0,
          2551.0,
          2551.0,
          2546.0,
          2544.0,
          2547.0,
          2553.0,
          2552.0,
          2547.0,
          2539.0,
          2535.0,
          2535.0,
          2534.0,
          2532.0,
          2530.0,
          2532.0,
          2541.0,
          2545.0,
          2541.0,
          2537.0,
          2536.0,
          2538.0,
          2542.0,
          2543.0,
          2540.0,
          2536.0,
          2539.0,
          2550.0,
          2550.0,
          2541.0,
          2541.0,
          2548.0,
          2548.0,
          2538.0,
          2532.0,
          2536.0,
          2547.0,
          2547.0,
          2538.0,
          2535.0,
          2536.0,
          2540.0,
          2537.0,
          2534.0,
          2538.0,
          2543.0,
          2541.0,
          2537.0,
          2537.0,
          2541.0,
          2549.0,
          2547.0,
          2545.0,
          2546.0,
          2546.0,
          2544.0,
          2544.0,
          2548.0,
          2547.0,
          2540.0,
          2532.0,
          2530.0,
          2533.0,
          2541.0,
          2545.0,
          2538.0,
          2538.0,
          2541.0,
          2546.0,
          2544.0,
          2539.0,
          2534.0,
          2538.0,
          2545.0,
          2543.0,
          2535.0,
          2536.0,
          2543.0,
          2547.0,
          2537.0,
          2527.0,
          2536.0,
          2546.0,
          2542.0,
          2537.0,
          2534.0,
          2539.0,
          2549.0,
          2548.0,
          2541.0,
          2536.0,
          2540.0,
          2546.0,
          2542.0,
          2535.0,
          2534.0,
          2535.0,
          2537.0,
          2539.0,
          2538.0,
          2535.0,
          2535.0,
          2538.0,
          2541.0,
          2541.0,
          2538.0,
          2535.0,
          2535.0,
          2540.0,
          2544.0,
          2540.0,
          2535.0,
          2536.0,
          2540.0,
          2543.0,
          2541.0,
          2537.0,
          2535.0,
          2536.0,
          2539.0,
          2543.0,
          2548.0,
          2544.0,
          2534.0,
          2529.0,
          2533.0,
          2542.0,
          2539.0,
          2532.0,
          2536.0,
