{
  "aor": 0.0026212195121951224,
  "aqi": 0.00804050274390244,
  "bids_meta": {
    "AcquisitionMatrixPE": 96,
    "AcquisitionNumber": 1,
    "AcquisitionTime": "18:49:50.230000",
    "BandwidthPerPixelPhaseEncode": 52.083,
    "BaseResolution": 96,
    "BodyPartExamined": "HEAD",
    "ConversionSoftware": "dcm2niix",
    "ConversionSoftwareVersion": "v1.0.20180622 GCC6.3.0",
    "DerivedVendorReportedEchoSpacing": 0.000600004,
    "DeviceSerialNumber": "18926",
    "DwellTime": 2.6e-06,
    "EchoTime": 0.025,
    "EffectiveEchoSpacing": 0.000200001,
    "FlipAngle": 50,
    "ImageOrientationPatientDICOM": [
      1,
      -2.05103e-10,
      0,
      2.05103e-10,
      1,
      0
    ],
    "ImageType": [
      "ORIGINAL",
      "PRIMARY",
      "M",
      "ND",
      "ECHO",
      "00",
      "MOSAIC"
    ],
    "InPlanePhaseEncodingDirectionDICOM": "ROW",
    "InstitutionName": "NIMH",
    "InstitutionalDepartmentName": "Department",
    "MRAcquisitionType": "2D",
    "MagneticFieldStrength": 6.98,
    "Manufacturer": "Siemens",
    "ManufacturersModelName": "Investigational_Device_7T",
    "Modality": "MR",
    "ParallelReductionFactorInPlane": 3,
    "PartialFourier": 1,
    "PatientPosition": "HFS",
    "PercentPhaseFOV": 100,
    "PhaseEncodingDirection": "i",
    "PhaseEncodingSteps": 94,
    "PhaseResolution": 1,
    "PixelBandwidth": 2003,
    "ProcedureStepDescription": "UserProtocols_gonzalez",
    "ProtocolName": "NIH_EPI_2.0iso_TR2_Run01",
    "PulseSequenceDetails": "%CustomerSeq%_inati_nih_epi",
    "ReceiveCoilName": "32Ch_Head_7T",
    "ReconMatrixPE": 96,
    "RepetitionTime": 2,
    "SAR": 0.0947952,
    "ScanningSequence": "EP",
    "SequenceName": "epfid2d1_96",
    "SequenceVariant": "SK",
    "SeriesDescription": "NIH_EPI_2.0iso_TR2_Run01",
    "SeriesNumber": 5,
    "ShimSetting": [
      -53,
      37,
      1273,
      2667,
      -26,
      207,
      639,
      -318
    ],
    "SliceThickness": 2,
    "SliceTiming": [
      1.0025,
      0,
      1.04,
      0.0375,
      1.0775,
      0.075,
      1.115,
      0.11,
      1.1525,
      0.1475,
      1.19,
      0.185,
      1.2275,
      0.2225,
      1.2625,
      0.26,
      1.3,
      0.2975,
      1.3375,
      0.335,
      1.375,
      0.3725,
      1.4125,
      0.4075,
      1.45,
      0.445,
      1.4875,
      0.4825,
      1.525,
      0.52,
      1.56,
      0.5575,
      1.5975,
      0.595,
      1.635,
      0.6325,
      1.6725,
      0.6675,
      1.71,
      0.705,
      1.7475,
      0.7425,
      1.785,
      0.78,
      1.82,
      0.8175,
      1.8575,
      0.855,
      1.895,
      0.8925,
      1.9325,
      0.93,
      1.97,
      0.965
    ],
    "SoftwareVersions": "syngo_MR_B17",
    "SpacingBetweenSlices": 2,
    "StationName": "FMRIFD7T",
    "TaskName": "FullFovAttentionTask",
    "TotalReadoutTime": 0.0190001,
    "TxRefAmp": 284,
    "dataset": "ds001555",
    "dcmmeta_affine": [
      [
        -2.0,
        4.1020681296188855e-10,
        0.0,
        95.98538208007812
      ],
      [
        4.1020681296188855e-10,
        2.0,
        0.0,
        -73.09773254394531
      ],
      [
        0.0,
        0.0,
        2.0,
        -31.2679443359375
      ],
      [
        0.0,
        0.0,
        0.0,
        1.0
      ]
    ],
    "dcmmeta_reorient_transform": [
      [
        0.0,
        -1.0,
        0.0,
        95.0
      ],
      [
        1.0,
        0.0,
        0.0,
        0.0
      ],
      [
        0.0,
        0.0,
        1.0,
        0.0
      ],
      [
        0.0,
        0.0,
        0.0,
        1.0
      ]
    ],
    "dcmmeta_shape": [
      96,
      96,
      54,
      164
    ],
    "dcmmeta_slice_dim": 2,
    "dcmmeta_version": 0.6,
    "global": {
      "const": {
        "AcquisitionMatrix": [
          0,
          96,
          96,
          0
        ],
        "AngioFlag": "N",
        "BitsAllocated": 16,
        "BitsStored": 12,
        "BodyPartExamined": "HEAD",
        "Columns": 768,
        "EchoNumbers": 1,
        "EchoTime": 25.0,
        "EchoTrainLength": 1,
        "FlipAngle": 50.0,
        "HighBit": 11,
        "ImageOrientationPatient": [
          1.0,
          -2.051034e-10,
          0.0,
          2.051034e-10,
          1.0,
          0.0
        ],
        "ImagePositionPatient": [
          -767.98537955166,
          -788.90226539119,
          -31.267944335938
        ],
        "ImageType": [
          "ORIGINAL",
          "PRIMARY",
          "M",
          "ND",
          "ECHO_00",
          "MOSAIC"
        ],
        "ImagedNucleus": "1H",
        "ImagingFrequency": 297.204875,
        "InPlanePhaseEncodingDirection": "ROW",
        "LargestImagePixelValue": 4095,
        "MRAcquisitionType": "2D",
        "MagneticFieldStrength": 6.98,
        "Manufacturer": "SIEMENS",
        "ManufacturerModelName": "Investigational_Device_7T",
        "Modality": "MR",
        "NumberOfAverages": 1.0,
        "NumberOfPhaseEncodingSteps": 94,
        "PercentPhaseFieldOfView": 100.0,
        "PercentSampling": 100.0,
        "PerformedProcedureStepStartTime": "182646.437000",
        "PhotometricInterpretation": "MONOCHROME2",
        "PixelBandwidth": 2003.0,
        "PixelRepresentation": 0,
        "PixelSpacing": [
          2.0,
          2.0
        ],
        "PositionReferenceIndicator": "",
        "ProtocolName": "NIH_EPI_2.0iso_TR2_Run01",
        "RepetitionTime": 2000.0,
        "Rows": 768,
        "SAR": 0.09479516296267,
        "SamplesPerPixel": 1,
        "ScanningSequence": "EP",
        "SequenceName": "epfid2d1_96",
        "SequenceVariant": "SK",
        "SeriesDescription": "NIH_EPI_2.0iso_TR2_Run01",
        "SeriesNumber": 5,
        "SliceLocation": -31.267944335938,
        "SliceThickness": 2.0,
        "SmallestImagePixelValue": 0,
        "SoftwareVersions": "syngo MR B17",
        "SpacingBetweenSlices": 2.0,
        "TransmitCoilName": "32Ch_Head_7T",
        "VariableFlipAngleFlag": "N",
        "WindowCenterWidthExplanation": "Algo1",
        "dBdt": 0.0
      },
      "slices": {}
    },
    "modality": "bold",
    "run_id": 2,
    "session_id": "06",
    "subject_id": "003",
    "task_id": "FullFovAttentionTask",
    "time": {
      "samples": {
        "AcquisitionNumber": [
          1,
          2,
          3,
          4,
          5,
          6,
          7,
          8,
          9,
          10,
          11,
          12,
          13,
          14,
          15,
          16,
          17,
          18,
          19,
          20,
          21,
          22,
          23,
          24,
          25,
          26,
          27,
          28,
          29,
          30,
          31,
          32,
          33,
          34,
          35,
          36,
          37,
          38,
          39,
          40,
          41,
          42,
          43,
          44,
          45,
          46,
          47,
          48,
          49,
          50,
          51,
          52,
          53,
          54,
          55,
          56,
          57,
          58,
          59,
          60,
          61,
          62,
          63,
          64,
          65,
          66,
          67,
          68,
          69,
          70,
          71,
          72,
          73,
          74,
          75,
          76,
          77,
          78,
          79,
          80,
          81,
          82,
          83,
          84,
          85,
          86,
          87,
          88,
          89,
          90,
          91,
          92,
          93,
          94,
          95,
          96,
          97,
          98,
          99,
          100,
          101,
          102,
          103,
          104,
          105,
          106,
          107,
          108,
          109,
          110,
          111,
          112,
          113,
          114,
          115,
          116,
          117,
          118,
          119,
          120,
          121,
          122,
          123,
          124,
          125,
          126,
          127,
          128,
          129,
          130,
          131,
          132,
          133,
          134,
          135,
          136,
          137,
          138,
          139,
          140,
          141,
          142,
          143,
          144,
          145,
          146,
          147,
          148,
          149,
          150,
          151,
          152,
          153,
          154,
          155,
          156,
          157,
          158,
          159,
          160,
          161,
          162,
          163,
          164
        ],
        "AcquisitionTime": [
          "184950.230000",
          "184954.247500",
          "184956.255000",
          "184958.262500",
          "185000.270000",
          "185002.280000",
          "185004.287500",
          "185006.295000",
          "185008.302500",
          "185010.310000",
          "185012.320000",
          "185014.327500",
          "185016.335000",
          "185018.342500",
          "185020.352500",
          "185022.360000",
          "185024.367500",
          "185026.375000",
          "185028.382500",
          "185030.392500",
          "185032.400000",
          "185034.407500",
          "185036.415000",
          "185038.422500",
          "185040.432500",
          "185042.440000",
          "185044.447500",
          "185046.455000",
          "185048.462500",
          "185050.472500",
          "185052.480000",
          "185054.487500",
          "185056.495000",
          "185058.505000",
          "185100.512500",
          "185102.520000",
          "185104.527500",
          "185106.535000",
          "185108.545000",
          "185110.552500",
          "185112.560000",
          "185114.567500",
          "185116.575000",
          "185118.585000",
          "185120.592500",
          "185122.600000",
          "185124.607500",
          "185126.617500",
          "185128.625000",
          "185130.632500",
          "185132.640000",
          "185134.647500",
          "185136.657500",
          "185138.665000",
          "185140.672500",
          "185142.680000",
          "185144.687500",
          "185146.697500",
          "185148.705000",
          "185150.712500",
          "185152.720000",
          "185154.730000",
          "185156.737500",
          "185158.745000",
          "185200.752500",
          "185202.760000",
          "185204.770000",
          "185206.777500",
          "185208.785000",
          "185210.792500",
          "185212.800000",
          "185214.810000",
          "185216.817500",
          "185218.825000",
          "185220.832500",
          "185222.840000",
          "185224.850000",
          "185226.857500",
          "185228.865000",
          "185230.872500",
          "185232.882500",
          "185234.890000",
          "185236.897500",
          "185238.905000",
          "185240.912500",
          "185242.922500",
          "185244.930000",
          "185246.937500",
          "185248.945000",
          "185250.952500",
          "185252.962500",
          "185254.970000",
          "185256.977500",
          "185258.985000",
          "185300.995000",
          "185303.002500",
          "185305.010000",
          "185307.017500",
          "185309.025000",
          "185311.035000",
          "185313.042500",
          "185315.050000",
          "185317.057500",
          "185319.065000",
          "185321.075000",
          "185323.082500",
          "185325.090000",
          "185327.097500",
          "185329.107500",
          "185331.115000",
          "185333.122500",
          "185335.130000",
          "185337.137500",
          "185339.147500",
          "185341.155000",
          "185343.162500",
          "185345.170000",
          "185347.177500",
          "185349.187500",
          "185351.195000",
          "185353.202500",
          "185355.210000",
          "185357.217500",
          "185359.227500",
          "185401.235000",
          "185403.242500",
          "185405.250000",
          "185407.260000",
          "185409.267500",
          "185411.275000",
          "185413.282500",
          "185415.290000",
          "185417.300000",
          "185419.307500",
          "185421.315000",
          "185423.322500",
          "185425.330000",
          "185427.340000",
          "185429.347500",
          "185431.355000",
          "185433.362500",
          "185435.372500",
          "185437.380000",
          "185439.387500",
          "185441.395000",
          "185443.402500",
          "185445.412500",
          "185447.420000",
          "185449.427500",
          "185451.435000",
          "185453.442500",
          "185455.452500",
          "185457.460000",
          "185459.467500",
          "185501.475000",
          "185503.485000",
          "185505.492500",
          "185507.500000",
          "185509.507500",
          "185511.515000",
          "185513.525000",
          "185515.532500",
          "185517.540000",
          "185519.547500"
        ],
        "ContentTime": [
          "185038.359000",
          "185038.359000",
          "185038.359000",
          "185038.359000",
          "185038.375000",
          "185038.375000",
          "185038.375000",
          "185038.375000",
          "185038.375000",
          "185038.390000",
          "185038.390000",
          "185038.390000",
          "185038.390000",
          "185038.390000",
          "185038.390000",
          "185038.406000",
          "185038.406000",
          "185038.406000",
          "185038.421000",
          "185038.421000",
          "185038.421000",
          "185038.421000",
          "185118.343000",
          "185118.343000",
          "185118.359000",
          "185118.359000",
          "185118.359000",
          "185118.359000",
          "185118.359000",
          "185118.359000",
          "185118.375000",
          "185118.375000",
          "185118.390000",
          "185118.390000",
          "185118.390000",
          "185118.390000",
          "185118.390000",
          "185118.390000",
          "185118.390000",
          "185118.406000",
          "185118.406000",
          "185118.406000",
          "185158.343000",
          "185158.343000",
          "185158.359000",
          "185158.359000",
          "185158.359000",
          "185158.359000",
          "185158.359000",
          "185158.359000",
          "185158.375000",
          "185158.375000",
          "185158.375000",
          "185158.375000",
          "185158.375000",
          "185158.375000",
          "185158.406000",
          "185158.406000",
          "185158.406000",
          "185158.406000",
          "185158.406000",
          "185158.406000",
          "185238.343000",
          "185238.359000",
          "185238.359000",
          "185238.359000",
          "185238.359000",
          "185238.359000",
          "185238.359000",
          "185238.375000",
          "185238.375000",
          "185238.375000",
          "185238.375000",
          "185238.375000",
          "185238.390000",
          "185238.390000",
          "185238.390000",
          "185238.390000",
          "185238.406000",
          "185238.406000",
          "185238.406000",
          "185238.406000",
          "185318.343000",
          "185318.359000",
          "185318.359000",
          "185318.359000",
          "185318.359000",
          "185318.359000",
          "185318.359000",
          "185318.375000",
          "185318.375000",
          "185318.375000",
          "185318.375000",
          "185318.375000",
          "185318.375000",
          "185318.375000",
          "185318.390000",
          "185318.390000",
          "185318.390000",
          "185318.390000",
          "185318.390000",
          "185318.390000",
          "185358.343000",
          "185358.359000",
          "185358.359000",
          "185358.359000",
          "185358.359000",
          "185358.359000",
          "185358.359000",
          "185358.375000",
          "185358.375000",
          "185358.375000",
          "185358.375000",
          "185358.375000",
          "185358.375000",
          "185358.390000",
          "185358.390000",
          "185358.390000",
          "185358.390000",
          "185358.390000",
          "185358.406000",
          "185358.406000",
          "185438.343000",
          "185438.359000",
          "185438.359000",
          "185438.359000",
          "185438.359000",
          "185438.359000",
          "185438.359000",
          "185438.375000",
          "185438.375000",
          "185438.375000",
          "185438.375000",
          "185438.375000",
          "185438.375000",
          "185438.390000",
          "185438.390000",
          "185438.390000",
          "185438.390000",
          "185438.390000",
          "185438.390000",
          "185438.390000",
          "185518.343000",
          "185518.359000",
          "185518.359000",
          "185518.359000",
          "185518.359000",
          "185518.359000",
          "185518.359000",
          "185518.375000",
          "185518.375000",
          "185518.375000",
          "185518.375000",
          "185518.375000",
          "185518.375000",
          "185518.390000",
          "185518.390000",
          "185518.390000",
          "185518.390000",
          "185518.390000",
          "185518.406000",
          "185518.406000",
          "185520.640000",
          "185520.656000"
        ],
        "InstanceCreationTime": [
          "185038.359000",
          "185038.359000",
          "185038.359000",
          "185038.359000",
          "185038.375000",
          "185038.375000",
          "185038.375000",
          "185038.375000",
          "185038.375000",
          "185038.390000",
          "185038.390000",
          "185038.390000",
          "185038.390000",
          "185038.390000",
          "185038.390000",
          "185038.406000",
          "185038.406000",
          "185038.406000",
          "185038.421000",
          "185038.421000",
          "185038.421000",
          "185038.421000",
          "185118.343000",
          "185118.343000",
          "185118.359000",
          "185118.359000",
          "185118.359000",
          "185118.359000",
          "185118.359000",
          "185118.359000",
          "185118.375000",
          "185118.375000",
          "185118.390000",
          "185118.390000",
          "185118.390000",
          "185118.390000",
          "185118.390000",
          "185118.390000",
          "185118.390000",
          "185118.406000",
          "185118.406000",
          "185118.406000",
          "185158.343000",
          "185158.343000",
          "185158.359000",
          "185158.359000",
          "185158.359000",
          "185158.359000",
          "185158.359000",
          "185158.359000",
          "185158.375000",
          "185158.375000",
          "185158.375000",
          "185158.375000",
          "185158.375000",
          "185158.375000",
          "185158.406000",
          "185158.406000",
          "185158.406000",
          "185158.406000",
          "185158.406000",
          "185158.406000",
          "185238.343000",
          "185238.359000",
          "185238.359000",
          "185238.359000",
          "185238.359000",
          "185238.359000",
          "185238.359000",
          "185238.375000",
          "185238.375000",
          "185238.375000",
          "185238.375000",
          "185238.375000",
          "185238.390000",
          "185238.390000",
          "185238.390000",
          "185238.390000",
          "185238.406000",
          "185238.406000",
          "185238.406000",
          "185238.406000",
          "185318.343000",
          "185318.359000",
          "185318.359000",
          "185318.359000",
          "185318.359000",
          "185318.359000",
          "185318.359000",
          "185318.375000",
          "185318.375000",
          "185318.375000",
          "185318.375000",
          "185318.375000",
          "185318.375000",
          "185318.375000",
          "185318.390000",
          "185318.390000",
          "185318.390000",
          "185318.390000",
          "185318.390000",
          "185318.390000",
          "185358.343000",
          "185358.359000",
          "185358.359000",
          "185358.359000",
          "185358.359000",
          "185358.359000",
          "185358.359000",
          "185358.375000",
          "185358.375000",
          "185358.375000",
          "185358.375000",
          "185358.375000",
          "185358.375000",
          "185358.390000",
          "185358.390000",
          "185358.390000",
          "185358.390000",
          "185358.390000",
          "185358.406000",
          "185358.406000",
          "185438.343000",
          "185438.359000",
          "185438.359000",
          "185438.359000",
          "185438.359000",
          "185438.359000",
          "185438.359000",
          "185438.375000",
          "185438.375000",
          "185438.375000",
          "185438.375000",
          "185438.375000",
          "185438.375000",
          "185438.390000",
          "185438.390000",
          "185438.390000",
          "185438.390000",
          "185438.390000",
          "185438.390000",
          "185438.390000",
          "185518.343000",
          "185518.359000",
          "185518.359000",
          "185518.359000",
          "185518.359000",
          "185518.359000",
          "185518.359000",
          "185518.375000",
          "185518.375000",
          "185518.375000",
          "185518.375000",
          "185518.375000",
          "185518.375000",
          "185518.390000",
          "185518.390000",
          "185518.390000",
          "185518.390000",
          "185518.390000",
          "185518.406000",
          "185518.406000",
          "185520.640000",
          "185520.656000"
        ],
        "InstanceNumber": [
          1,
          2,
          3,
          4,
          5,
          6,
          7,
          8,
          9,
          10,
          11,
          12,
          13,
          14,
          15,
          16,
          17,
          18,
          19,
          20,
          21,
          22,
          23,
          24,
          25,
          26,
          27,
          28,
          29,
          30,
          31,
          32,
          33,
          34,
          35,
          36,
          37,
          38,
          39,
          40,
          41,
          42,
          43,
          44,
          45,
          46,
          47,
          48,
          49,
          50,
          51,
          52,
          53,
          54,
          55,
          56,
          57,
          58,
          59,
          60,
          61,
          62,
          63,
          64,
          65,
          66,
          67,
          68,
          69,
          70,
          71,
          72,
          73,
          74,
          75,
          76,
          77,
          78,
          79,
          80,
          81,
          82,
          83,
          84,
          85,
          86,
          87,
          88,
          89,
          90,
          91,
          92,
          93,
          94,
          95,
          96,
          97,
          98,
          99,
          100,
          101,
          102,
          103,
          104,
          105,
          106,
          107,
          108,
          109,
          110,
          111,
          112,
          113,
          114,
          115,
          116,
          117,
          118,
          119,
          120,
          121,
          122,
          123,
          124,
          125,
          126,
          127,
          128,
          129,
          130,
          131,
          132,
          133,
          134,
          135,
          136,
          137,
          138,
          139,
          140,
          141,
          142,
          143,
          144,
          145,
          146,
          147,
          148,
          149,
          150,
          151,
          152,
          153,
          154,
          155,
          156,
          157,
          158,
          159,
          160,
          161,
          162,
          163,
          164
        ],
        "WindowCenter": [
          972.0,
          973.0,
          973.0,
          974.0,
          974.0,
          972.0,
          972.0,
          973.0,
          975.0,
          974.0,
          973.0,
          972.0,
          973.0,
          974.0,
          972.0,
          971.0,
          971.0,
          972.0,
          974.0,
          972.0,
          971.0,
          971.0,
          972.0,
          972.0,
          974.0,
          974.0,
          974.0,
          974.0,
          974.0,
          974.0,
          975.0,
          973.0,
          974.0,
          974.0,
          973.0,
          973.0,
          973.0,
          972.0,
          973.0,
          973.0,
          972.0,
          971.0,
          970.0,
          971.0,
          972.0,
          973.0,
          973.0,
          972.0,
          972.0,
          972.0,
          973.0,
          974.0,
          973.0,
          973.0,
          972.0,
          972.0,
          971.0,
          971.0,
          972.0,
          972.0,
          973.0,
          973.0,
          974.0,
          974.0,
          972.0,
          971.0,
          971.0,
          972.0,
          972.0,
          973.0,
          972.0,
          972.0,
          972.0,
          972.0,
          973.0,
          975.0,
          972.0,
          974.0,
          973.0,
          973.0,
          974.0,
          974.0,
          975.0,
          974.0,
          973.0,
          973.0,
          974.0,
          974.0,
          973.0,
          971.0,
          971.0,
          972.0,
          973.0,
          973.0,
          973.0,
          974.0,
          973.0,
          973.0,
          972.0,
          971.0,
          971.0,
          971.0,
          971.0,
          971.0,
          971.0,
          974.0,
          972.0,
          974.0,
          973.0,
          973.0,
          973.0,
          974.0,
          974.0,
          973.0,
          972.0,
          972.0,
          971.0,
          971.0,
          971.0,
          970.0,
          971.0,
          971.0,
          972.0,
          972.0,
          972.0,
          973.0,
          972.0,
          970.0,
          970.0,
          971.0,
          971.0,
          971.0,
          971.0,
          971.0,
          972.0,
          971.0,
          976.0,
          972.0,
          973.0,
          973.0,
          972.0,
          972.0,
          974.0,
          973.0,
          973.0,
          972.0,
          971.0,
          973.0,
          972.0,
          971.0,
          971.0,
          971.0,
          970.0,
          970.0,
          971.0,
          972.0,
          972.0,
          972.0,
          973.0,
          973.0,
          972.0,
          972.0,
          972.0,
          971.0
        ],
        "WindowWidth": [
          2698.0,
          2700.0,
          2706.0,
          2707.0,
          2704.0,
          2704.0,
          2706.0,
          2713.0,
          2716.0,
          2712.0,
          2706.0,
          2706.0,
          2710.0,
          2710.0,
          2703.0,
          2699.0,
          2704.0,
          2716.0,
          2716.0,
          2700.0,
          2692.0,
          2694.0,
          2702.0,
          2706.0,
          2703.0,
          2706.0,
          2709.0,
          2709.0,
          2709.0,
          2712.0,
          2713.0,
          2713.0,
          2712.0,
          2713.0,
          2710.0,
          2705.0,
          2701.0,
          2706.0,
          2715.0,
          2714.0,
          2706.0,
          2702.0,
          2699.0,
          2704.0,
          2713.0,
          2714.0,
          2709.0,
          2707.0,
          2704.0,
          2705.0,
          2709.0,
          2709.0,
          2705.0,
          2702.0,
          2702.0,
          2699.0,
          2695.0,
          2696.0,
          2701.0,
          2704.0,
          2709.0,
          2717.0,
          2721.0,
          2713.0,
          2702.0,
          2698.0,
          2707.0,
          2713.0,
          2714.0,
          2713.0,
          2708.0,
          2709.0,
          2712.0,
          2712.0,
          2705.0,
          2702.0,
          2707.0,
          2716.0,
          2714.0,
          2705.0,
          2699.0,
          2704.0,
          2709.0,
          2706.0,
          2705.0,
          2711.0,
          2717.0,
          2719.0,
          2708.0,
          2701.0,
          2702.0,
          2706.0,
          2710.0,
          2710.0,
          2711.0,
          2715.0,
          2720.0,
          2720.0,
          2711.0,
          2703.0,
          2701.0,
          2704.0,
          2707.0,
          2703.0,
          2703.0,
          2707.0,
          2711.0,
          2711.0,
          2708.0,
          2708.0,
          2710.0,
          2711.0,
          2705.0,
          2696.0,
          2691.0,
          2689.0,
          2689.0,
          2687.0,
          2690.0,
          2692.0,
          2695.0,
          2700.0,
          2705.0,
          2709.0,
          2712.0,
          2713.0,
          2712.0,
          2707.0,
          2706.0,
          2709.0,
          2712.0,
          2710.0,
          2709.0,
          2709.0,
          2705.0,
          2698.0,
          2698.0,
          2701.0,
          2702.0,
          2701.0,
          2696.0,
          2694.0,
          2697.0,
          2700.0,
          2699.0,
          2696.0,
          2696.0,
          2696.0,
          2694.0,
