{
  "aor": 0.004140487804878049,
  "aqi": 0.008401010304878049,
  "bids_meta": {
    "AcquisitionMatrixPE": 96,
    "AcquisitionNumber": 1,
    "AcquisitionTime": "18:56:12.465000",
    "BandwidthPerPixelPhaseEncode": 52.083,
    "BaseResolution": 96,
    "BodyPartExamined": "HEAD",
    "ConversionSoftware": "dcm2niix",
    "ConversionSoftwareVersion": "v1.0.20180622 GCC6.3.0",
    "DerivedVendorReportedEchoSpacing": 0.000600004,
    "DeviceSerialNumber": "18926",
    "DwellTime": 2.6e-06,
    "EchoTime": 0.025,
    "EffectiveEchoSpacing": 0.000200001,
    "FlipAngle": 50,
    "ImageOrientationPatientDICOM": [
      1,
      -2.05103e-10,
      0,
      2.05103e-10,
      1,
      0
    ],
    "ImageType": [
      "ORIGINAL",
      "PRIMARY",
      "M",
      "ND",
      "ECHO",
      "00",
      "MOSAIC"
    ],
    "InPlanePhaseEncodingDirectionDICOM": "ROW",
    "InstitutionName": "NIMH",
    "InstitutionalDepartmentName": "Department",
    "MRAcquisitionType": "2D",
    "MagneticFieldStrength": 6.98,
    "Manufacturer": "Siemens",
    "ManufacturersModelName": "Investigational_Device_7T",
    "Modality": "MR",
    "ParallelReductionFactorInPlane": 3,
    "PartialFourier": 1,
    "PatientPosition": "HFS",
    "PercentPhaseFOV": 100,
    "PhaseEncodingDirection": "i",
    "PhaseEncodingSteps": 94,
    "PhaseResolution": 1,
    "PixelBandwidth": 2003,
    "ProcedureStepDescription": "UserProtocols_gonzalez",
    "ProtocolName": "NIH_EPI_2.0iso_TR2_Run02",
    "PulseSequenceDetails": "%CustomerSeq%_inati_nih_epi",
    "ReceiveCoilName": "32Ch_Head_7T",
    "ReconMatrixPE": 96,
    "RepetitionTime": 2,
    "SAR": 0.0947952,
    "ScanningSequence": "EP",
    "SequenceName": "epfid2d1_96",
    "SequenceVariant": "SK",
    "SeriesDescription": "NIH_EPI_2.0iso_TR2_Run02",
    "SeriesNumber": 6,
    "ShimSetting": [
      -53,
      37,
      1273,
      2667,
      -26,
      207,
      639,
      -318
    ],
    "SliceThickness": 2,
    "SliceTiming": [
      1.0025,
      0,
      1.04,
      0.0375,
      1.0775,
      0.075,
      1.115,
      0.1125,
      1.1525,
      0.1475,
      1.19,
      0.185,
      1.2275,
      0.2225,
      1.265,
      0.26,
      1.3,
      0.2975,
      1.3375,
      0.335,
      1.375,
      0.3725,
      1.4125,
      0.41,
      1.45,
      0.445,
      1.4875,
      0.4825,
      1.525,
      0.52,
      1.5625,
      0.5575,
      1.5975,
      0.595,
      1.635,
      0.6325,
      1.6725,
      0.67,
      1.71,
      0.705,
      1.7475,
      0.7425,
      1.785,
      0.78,
      1.8225,
      0.8175,
      1.8575,
      0.855,
      1.895,
      0.8925,
      1.9325,
      0.93,
      1.97,
      0.9675
    ],
    "SoftwareVersions": "syngo_MR_B17",
    "SpacingBetweenSlices": 2,
    "StationName": "FMRIFD7T",
    "TaskName": "FullFovAttentionTask",
    "TotalReadoutTime": 0.0190001,
    "TxRefAmp": 284,
    "dataset": "ds001555",
    "dcmmeta_affine": [
      [
        -2.0,
        4.1020681296188855e-10,
        0.0,
        95.98538208007812
      ],
      [
        4.1020681296188855e-10,
        2.0,
        0.0,
        -73.09773254394531
      ],
      [
        0.0,
        0.0,
        2.0,
        -31.2679443359375
      ],
      [
        0.0,
        0.0,
        0.0,
        1.0
      ]
    ],
    "dcmmeta_reorient_transform": [
      [
        0.0,
        -1.0,
        0.0,
        95.0
      ],
      [
        1.0,
        0.0,
        0.0,
        0.0
      ],
      [
        0.0,
        0.0,
        1.0,
        0.0
      ],
      [
        0.0,
        0.0,
        0.0,
        1.0
      ]
    ],
    "dcmmeta_shape": [
      96,
      96,
      54,
      164
    ],
    "dcmmeta_slice_dim": 2,
    "dcmmeta_version": 0.6,
    "global": {
      "const": {
        "AcquisitionMatrix": [
          0,
          96,
          96,
          0
        ],
        "AngioFlag": "N",
        "BitsAllocated": 16,
        "BitsStored": 12,
        "BodyPartExamined": "HEAD",
        "Columns": 768,
        "EchoNumbers": 1,
        "EchoTime": 25.0,
        "EchoTrainLength": 1,
        "FlipAngle": 50.0,
        "HighBit": 11,
        "ImageOrientationPatient": [
          1.0,
          -2.051034e-10,
          0.0,
          2.051034e-10,
          1.0,
          0.0
        ],
        "ImagePositionPatient": [
          -767.98537955166,
          -788.90226539119,
          -31.267944335938
        ],
        "ImageType": [
          "ORIGINAL",
          "PRIMARY",
          "M",
          "ND",
          "ECHO_00",
          "MOSAIC"
        ],
        "ImagedNucleus": "1H",
        "ImagingFrequency": 297.204885,
        "InPlanePhaseEncodingDirection": "ROW",
        "LargestImagePixelValue": 4095,
        "MRAcquisitionType": "2D",
        "MagneticFieldStrength": 6.98,
        "Manufacturer": "SIEMENS",
        "ManufacturerModelName": "Investigational_Device_7T",
        "Modality": "MR",
        "NumberOfAverages": 1.0,
        "NumberOfPhaseEncodingSteps": 94,
        "PercentPhaseFieldOfView": 100.0,
        "PercentSampling": 100.0,
        "PerformedProcedureStepStartTime": "182646.437000",
        "PhotometricInterpretation": "MONOCHROME2",
        "PixelBandwidth": 2003.0,
        "PixelRepresentation": 0,
        "PixelSpacing": [
          2.0,
          2.0
        ],
        "PositionReferenceIndicator": "",
        "ProtocolName": "NIH_EPI_2.0iso_TR2_Run02",
        "RepetitionTime": 2000.0,
        "Rows": 768,
        "SAR": 0.09479516296267,
        "SamplesPerPixel": 1,
        "ScanningSequence": "EP",
        "SequenceName": "epfid2d1_96",
        "SequenceVariant": "SK",
        "SeriesDescription": "NIH_EPI_2.0iso_TR2_Run02",
        "SeriesNumber": 6,
        "SliceLocation": -31.267944335938,
        "SliceThickness": 2.0,
        "SmallestImagePixelValue": 0,
        "SoftwareVersions": "syngo MR B17",
        "SpacingBetweenSlices": 2.0,
        "TransmitCoilName": "32Ch_Head_7T",
        "VariableFlipAngleFlag": "N",
        "WindowCenterWidthExplanation": "Algo1",
        "dBdt": 0.0
      },
      "slices": {}
    },
    "modality": "bold",
    "run_id": 3,
    "session_id": "06",
    "subject_id": "003",
    "task_id": "FullFovAttentionTask",
    "time": {
      "samples": {
        "AcquisitionNumber": [
          1,
          2,
          3,
          4,
          5,
          6,
          7,
          8,
          9,
          10,
          11,
          12,
          13,
          14,
          15,
          16,
          17,
          18,
          19,
          20,
          21,
          22,
          23,
          24,
          25,
          26,
          27,
          28,
          29,
          30,
          31,
          32,
          33,
          34,
          35,
          36,
          37,
          38,
          39,
          40,
          41,
          42,
          43,
          44,
          45,
          46,
          47,
          48,
          49,
          50,
          51,
          52,
          53,
          54,
          55,
          56,
          57,
          58,
          59,
          60,
          61,
          62,
          63,
          64,
          65,
          66,
          67,
          68,
          69,
          70,
          71,
          72,
          73,
          74,
          75,
          76,
          77,
          78,
          79,
          80,
          81,
          82,
          83,
          84,
          85,
          86,
          87,
          88,
          89,
          90,
          91,
          92,
          93,
          94,
          95,
          96,
          97,
          98,
          99,
          100,
          101,
          102,
          103,
          104,
          105,
          106,
          107,
          108,
          109,
          110,
          111,
          112,
          113,
          114,
          115,
          116,
          117,
          118,
          119,
          120,
          121,
          122,
          123,
          124,
          125,
          126,
          127,
          128,
          129,
          130,
          131,
          132,
          133,
          134,
          135,
          136,
          137,
          138,
          139,
          140,
          141,
          142,
          143,
          144,
          145,
          146,
          147,
          148,
          149,
          150,
          151,
          152,
          153,
          154,
          155,
          156,
          157,
          158,
          159,
          160,
          161,
          162,
          163,
          164
        ],
        "AcquisitionTime": [
          "185612.465000",
          "185616.482500",
          "185618.490000",
          "185620.497500",
          "185622.507500",
          "185624.515000",
          "185626.522500",
          "185628.530000",
          "185630.537500",
          "185632.547500",
          "185634.555000",
          "185636.562500",
          "185638.570000",
          "185640.577500",
          "185642.587500",
          "185644.595000",
          "185646.602500",
          "185648.610000",
          "185650.617500",
          "185652.627500",
          "185654.635000",
          "185656.642500",
          "185658.650000",
          "185700.660000",
          "185702.667500",
          "185704.675000",
          "185706.682500",
          "185708.690000",
          "185710.700000",
          "185712.707500",
          "185714.715000",
          "185716.722500",
          "185718.730000",
          "185720.740000",
          "185722.747500",
          "185724.755000",
          "185726.762500",
          "185728.772500",
          "185730.780000",
          "185732.787500",
          "185734.795000",
          "185736.802500",
          "185738.812500",
          "185740.820000",
          "185742.827500",
          "185744.835000",
          "185746.842500",
          "185748.852500",
          "185750.860000",
          "185752.867500",
          "185754.875000",
          "185756.885000",
          "185758.892500",
          "185800.900000",
          "185802.907500",
          "185804.915000",
          "185806.925000",
          "185808.932500",
          "185810.940000",
          "185812.947500",
          "185814.955000",
          "185816.965000",
          "185818.972500",
          "185820.980000",
          "185822.987500",
          "185824.995000",
          "185827.005000",
          "185829.012500",
          "185831.020000",
          "185833.027500",
          "185835.037500",
          "185837.045000",
          "185839.052500",
          "185841.060000",
          "185843.067500",
          "185845.077500",
          "185847.085000",
          "185849.092500",
          "185851.100000",
          "185853.107500",
          "185855.117500",
          "185857.125000",
          "185859.132500",
          "185901.140000",
          "185903.150000",
          "185905.157500",
          "185907.165000",
          "185909.172500",
          "185911.180000",
          "185913.190000",
          "185915.197500",
          "185917.205000",
          "185919.212500",
          "185921.220000",
          "185923.230000",
          "185925.237500",
          "185927.245000",
          "185929.252500",
          "185931.262500",
          "185933.270000",
          "185935.277500",
          "185937.285000",
          "185939.292500",
          "185941.302500",
          "185943.310000",
          "185945.317500",
          "185947.325000",
          "185949.332500",
          "185951.342500",
          "185953.350000",
          "185955.357500",
          "185957.365000",
          "185959.372500",
          "190001.382500",
          "190003.390000",
          "190005.397500",
          "190007.405000",
          "190009.415000",
          "190011.422500",
          "190013.430000",
          "190015.437500",
          "190017.445000",
          "190019.455000",
          "190021.462500",
          "190023.470000",
          "190025.477500",
          "190027.485000",
          "190029.495000",
          "190031.502500",
          "190033.510000",
          "190035.517500",
          "190037.527500",
          "190039.535000",
          "190041.542500",
          "190043.550000",
          "190045.557500",
          "190047.567500",
          "190049.575000",
          "190051.582500",
          "190053.590000",
          "190055.597500",
          "190057.607500",
          "190059.615000",
          "190101.622500",
          "190103.630000",
          "190105.640000",
          "190107.647500",
          "190109.655000",
          "190111.662500",
          "190113.670000",
          "190115.680000",
          "190117.687500",
          "190119.695000",
          "190121.702500",
          "190123.710000",
          "190125.720000",
          "190127.727500",
          "190129.735000",
          "190131.742500",
          "190133.752500",
          "190135.760000",
          "190137.767500",
          "190139.775000",
          "190141.782500"
        ],
        "ContentTime": [
          "185631.453000",
          "185631.453000",
          "185631.468000",
          "185631.468000",
          "185631.468000",
          "185631.468000",
          "185711.437000",
          "185711.453000",
          "185711.453000",
          "185711.453000",
          "185711.453000",
          "185711.468000",
          "185711.468000",
          "185711.468000",
          "185711.468000",
          "185711.468000",
          "185711.468000",
          "185711.484000",
          "185711.484000",
          "185711.484000",
          "185711.484000",
          "185711.484000",
          "185711.500000",
          "185711.500000",
          "185711.500000",
          "185711.500000",
          "185711.500000",
          "185711.500000",
          "185751.437000",
          "185751.453000",
          "185751.453000",
          "185751.453000",
          "185751.453000",
          "185751.453000",
          "185751.453000",
          "185751.468000",
          "185751.468000",
          "185751.468000",
          "185751.468000",
          "185751.468000",
          "185751.468000",
          "185751.468000",
          "185751.484000",
          "185751.484000",
          "185751.484000",
          "185751.484000",
          "185751.500000",
          "185751.500000",
          "185831.437000",
          "185831.453000",
          "185831.453000",
          "185831.453000",
          "185831.453000",
          "185831.453000",
          "185831.453000",
          "185831.453000",
          "185831.468000",
          "185831.468000",
          "185831.468000",
          "185831.468000",
          "185831.468000",
          "185831.468000",
          "185831.484000",
          "185831.484000",
          "185831.484000",
          "185831.484000",
          "185831.484000",
          "185831.484000",
          "185911.437000",
          "185911.453000",
          "185911.453000",
          "185911.453000",
          "185911.453000",
          "185911.453000",
          "185911.453000",
          "185911.453000",
          "185911.468000",
          "185911.468000",
          "185911.468000",
          "185911.468000",
          "185911.468000",
          "185911.468000",
          "185911.484000",
          "185911.484000",
          "185911.484000",
          "185911.484000",
          "185911.484000",
          "185911.484000",
          "185951.437000",
          "185951.453000",
          "185951.453000",
          "185951.453000",
          "185951.453000",
          "185951.453000",
          "185951.453000",
          "185951.453000",
          "185951.468000",
          "185951.468000",
          "185951.468000",
          "185951.468000",
          "185951.484000",
          "185951.484000",
          "185951.484000",
          "185951.484000",
          "185951.484000",
          "185951.500000",
          "185951.500000",
          "185951.500000",
          "190031.437000",
          "190031.453000",
          "190031.453000",
          "190031.453000",
          "190031.453000",
          "190031.468000",
          "190031.468000",
          "190031.468000",
          "190031.468000",
          "190031.468000",
          "190031.468000",
          "190031.484000",
          "190031.484000",
          "190031.484000",
          "190031.484000",
          "190031.484000",
          "190031.484000",
          "190031.500000",
          "190031.500000",
          "190031.500000",
          "190111.437000",
          "190111.453000",
          "190111.453000",
          "190111.453000",
          "190111.453000",
          "190111.453000",
          "190111.453000",
          "190111.468000",
          "190111.468000",
          "190111.468000",
          "190111.468000",
          "190111.468000",
          "190111.484000",
          "190111.484000",
          "190111.484000",
          "190111.500000",
          "190111.500000",
          "190111.500000",
          "190111.500000",
          "190111.500000",
          "190142.718000",
          "190142.718000",
          "190142.718000",
          "190142.734000",
          "190142.734000",
          "190142.734000",
          "190142.734000",
          "190142.734000",
          "190142.750000",
          "190142.750000",
          "190142.750000",
          "190142.750000",
          "190142.750000",
          "190142.750000",
          "190142.765000",
          "190142.765000"
        ],
        "InstanceCreationTime": [
          "185631.453000",
          "185631.453000",
          "185631.468000",
          "185631.468000",
          "185631.468000",
          "185631.468000",
          "185711.437000",
          "185711.453000",
          "185711.453000",
          "185711.453000",
          "185711.453000",
          "185711.468000",
          "185711.468000",
          "185711.468000",
          "185711.468000",
          "185711.468000",
          "185711.468000",
          "185711.484000",
          "185711.484000",
          "185711.484000",
          "185711.484000",
          "185711.484000",
          "185711.500000",
          "185711.500000",
          "185711.500000",
          "185711.500000",
          "185711.500000",
          "185711.500000",
          "185751.437000",
          "185751.453000",
          "185751.453000",
          "185751.453000",
          "185751.453000",
          "185751.453000",
          "185751.453000",
          "185751.468000",
          "185751.468000",
          "185751.468000",
          "185751.468000",
          "185751.468000",
          "185751.468000",
          "185751.468000",
          "185751.484000",
          "185751.484000",
          "185751.484000",
          "185751.484000",
          "185751.500000",
          "185751.500000",
          "185831.437000",
          "185831.453000",
          "185831.453000",
          "185831.453000",
          "185831.453000",
          "185831.453000",
          "185831.453000",
          "185831.453000",
          "185831.468000",
          "185831.468000",
          "185831.468000",
          "185831.468000",
          "185831.468000",
          "185831.468000",
          "185831.484000",
          "185831.484000",
          "185831.484000",
          "185831.484000",
          "185831.484000",
          "185831.484000",
          "185911.437000",
          "185911.453000",
          "185911.453000",
          "185911.453000",
          "185911.453000",
          "185911.453000",
          "185911.453000",
          "185911.453000",
          "185911.468000",
          "185911.468000",
          "185911.468000",
          "185911.468000",
          "185911.468000",
          "185911.468000",
          "185911.484000",
          "185911.484000",
          "185911.484000",
          "185911.484000",
          "185911.484000",
          "185911.484000",
          "185951.437000",
          "185951.453000",
          "185951.453000",
          "185951.453000",
          "185951.453000",
          "185951.453000",
          "185951.453000",
          "185951.453000",
          "185951.468000",
          "185951.468000",
          "185951.468000",
          "185951.468000",
          "185951.484000",
          "185951.484000",
          "185951.484000",
          "185951.484000",
          "185951.484000",
          "185951.500000",
          "185951.500000",
          "185951.500000",
          "190031.437000",
          "190031.453000",
          "190031.453000",
          "190031.453000",
          "190031.453000",
          "190031.468000",
          "190031.468000",
          "190031.468000",
          "190031.468000",
          "190031.468000",
          "190031.468000",
          "190031.484000",
          "190031.484000",
          "190031.484000",
          "190031.484000",
          "190031.484000",
          "190031.484000",
          "190031.500000",
          "190031.500000",
          "190031.500000",
          "190111.437000",
          "190111.453000",
          "190111.453000",
          "190111.453000",
          "190111.453000",
          "190111.453000",
          "190111.453000",
          "190111.468000",
          "190111.468000",
          "190111.468000",
          "190111.468000",
          "190111.468000",
          "190111.484000",
          "190111.484000",
          "190111.484000",
          "190111.500000",
          "190111.500000",
          "190111.500000",
          "190111.500000",
          "190111.500000",
          "190142.718000",
          "190142.718000",
          "190142.718000",
          "190142.734000",
          "190142.734000",
          "190142.734000",
          "190142.734000",
          "190142.734000",
          "190142.750000",
          "190142.750000",
          "190142.750000",
          "190142.750000",
          "190142.750000",
          "190142.750000",
          "190142.765000",
          "190142.765000"
        ],
        "InstanceNumber": [
          1,
          2,
          3,
          4,
          5,
          6,
          7,
          8,
          9,
          10,
          11,
          12,
          13,
          14,
          15,
          16,
          17,
          18,
          19,
          20,
          21,
          22,
          23,
          24,
          25,
          26,
          27,
          28,
          29,
          30,
          31,
          32,
          33,
          34,
          35,
          36,
          37,
          38,
          39,
          40,
          41,
          42,
          43,
          44,
          45,
          46,
          47,
          48,
          49,
          50,
          51,
          52,
          53,
          54,
          55,
          56,
          57,
          58,
          59,
          60,
          61,
          62,
          63,
          64,
          65,
          66,
          67,
          68,
          69,
          70,
          71,
          72,
          73,
          74,
          75,
          76,
          77,
          78,
          79,
          80,
          81,
          82,
          83,
          84,
          85,
          86,
          87,
          88,
          89,
          90,
          91,
          92,
          93,
          94,
          95,
          96,
          97,
          98,
          99,
          100,
          101,
          102,
          103,
          104,
          105,
          106,
          107,
          108,
          109,
          110,
          111,
          112,
          113,
          114,
          115,
          116,
          117,
          118,
          119,
          120,
          121,
          122,
          123,
          124,
          125,
          126,
          127,
          128,
          129,
          130,
          131,
          132,
          133,
          134,
          135,
          136,
          137,
          138,
          139,
          140,
          141,
          142,
          143,
          144,
          145,
          146,
          147,
          148,
          149,
          150,
          151,
          152,
          153,
          154,
          155,
          156,
          157,
          158,
          159,
          160,
          161,
          162,
          163,
          164
        ],
        "WindowCenter": [
          971.0,
          971.0,
          969.0,
          971.0,
          972.0,
          970.0,
          970.0,
          970.0,
          967.0,
          967.0,
          967.0,
          968.0,
          969.0,
          968.0,
          969.0,
          969.0,
          972.0,
          972.0,
          972.0,
          972.0,
          972.0,
          970.0,
          970.0,
          970.0,
          970.0,
          971.0,
          972.0,
          970.0,
          969.0,
          970.0,
          970.0,
          969.0,
          969.0,
          970.0,
          970.0,
          970.0,
          972.0,
          972.0,
          969.0,
          968.0,
          968.0,
          970.0,
          970.0,
          972.0,
          972.0,
          970.0,
          972.0,
          971.0,
          970.0,
          970.0,
          969.0,
          968.0,
          969.0,
          969.0,
          969.0,
          970.0,
          972.0,
          970.0,
          969.0,
          971.0,
          971.0,
          970.0,
          970.0,
          970.0,
          970.0,
          971.0,
          970.0,
          970.0,
          970.0,
          971.0,
          969.0,
          969.0,
          970.0,
          970.0,
          971.0,
          971.0,
          972.0,
          971.0,
          971.0,
          970.0,
          970.0,
          972.0,
          971.0,
          971.0,
          971.0,
          970.0,
          970.0,
          971.0,
          970.0,
          970.0,
          971.0,
          971.0,
          970.0,
          969.0,
          967.0,
          968.0,
          969.0,
          969.0,
          969.0,
          968.0,
          968.0,
          970.0,
          972.0,
          972.0,
          971.0,
          970.0,
          970.0,
          972.0,
          973.0,
          972.0,
          973.0,
          971.0,
          973.0,
          971.0,
          970.0,
          970.0,
          970.0,
          971.0,
          970.0,
          969.0,
          969.0,
          970.0,
          970.0,
          971.0,
          971.0,
          970.0,
          970.0,
          970.0,
          970.0,
          969.0,
          968.0,
          968.0,
          969.0,
          970.0,
          969.0,
          968.0,
          968.0,
          969.0,
          970.0,
          972.0,
          971.0,
          969.0,
          969.0,
          971.0,
          971.0,
          971.0,
          970.0,
          970.0,
          970.0,
          970.0,
          969.0,
          969.0,
          970.0,
          971.0,
          972.0,
          970.0,
          970.0,
          970.0,
          970.0,
          969.0,
          970.0,
          970.0,
          971.0,
          972.0
        ],
        "WindowWidth": [
          2700.0,
          2698.0,
          2697.0,
          2700.0,
          2702.0,
          2698.0,
          2696.0,
          2686.0,
          2682.0,
          2683.0,
          2690.0,
          2697.0,
          2699.0,
          2696.0,
          2695.0,
          2704.0,
          2713.0,
          2712.0,
          2704.0,
          2704.0,
          2702.0,
          2700.0,
          2691.0,
          2685.0,
          2683.0,
          2692.0,
          2697.0,
          2698.0,
          2702.0,
          2701.0,
          2701.0,
          2704.0,
          2705.0,
          2709.0,
          2714.0,
          2721.0,
          2725.0,
          2716.0,
          2705.0,
          2699.0,
          2702.0,
          2704.0,
          2707.0,
          2707.0,
          2703.0,
          2697.0,
          2697.0,
          2703.0,
          2705.0,
          2696.0,
          2689.0,
          2688.0,
          2694.0,
          2698.0,
          2701.0,
          2701.0,
          2697.0,
          2694.0,
          2691.0,
          2689.0,
          2690.0,
          2693.0,
          2693.0,
          2696.0,
          2697.0,
          2695.0,
          2698.0,
          2702.0,
          2702.0,
          2699.0,
          2700.0,
          2702.0,
          2701.0,
          2697.0,
          2697.0,
          2702.0,
          2702.0,
          2697.0,
          2692.0,
          2690.0,
          2694.0,
          2695.0,
          2695.0,
          2692.0,
          2690.0,
          2694.0,
          2697.0,
          2694.0,
          2693.0,
          2694.0,
          2697.0,
          2695.0,
          2688.0,
          2687.0,
          2689.0,
          2694.0,
          2698.0,
          2702.0,
          2698.0,
          2696.0,
          2703.0,
          2714.0,
          2714.0,
          2706.0,
          2697.0,
          2695.0,
          2698.0,
          2704.0,
          2704.0,
          2700.0,
          2699.0,
          2702.0,
          2703.0,
          2700.0,
          2693.0,
          2694.0,
          2700.0,
          2697.0,
          2688.0,
          2684.0,
          2687.0,
          2692.0,
          2693.0,
          2690.0,
          2691.0,
          2694.0,
          2699.0,
          2700.0,
          2698.0,
          2691.0,
          2689.0,
          2695.0,
          2700.0,
          2699.0,
          2695.0,
          2691.0,
          2690.0,
          2698.0,
          2710.0,
          2708.0,
          2698.0,
          2692.0,
          2693.0,
          2699.0,
          2699.0,
          2698.0,
          2698.0,
          2698.0,
          2695.0,
