{
  "aor": 0.001138780487804878,
  "aqi": 0.010407225243902439,
  "bids_meta": {
    "AcquisitionMatrixPE": 96,
    "AcquisitionNumber": 1,
    "AcquisitionTime": "19:45:54.090000",
    "BandwidthPerPixelPhaseEncode": 52.083,
    "BaseResolution": 96,
    "BodyPartExamined": "HEAD",
    "ConversionSoftware": "dcm2niix",
    "ConversionSoftwareVersion": "v1.0.20180622 GCC6.3.0",
    "DerivedVendorReportedEchoSpacing": 0.000600004,
    "DeviceSerialNumber": "18926",
    "DwellTime": 2.6e-06,
    "EchoTime": 0.025,
    "EffectiveEchoSpacing": 0.000200001,
    "FlipAngle": 50,
    "ImageOrientationPatientDICOM": [
      1,
      -2.05103e-10,
      0,
      2.05103e-10,
      1,
      0
    ],
    "ImageType": [
      "ORIGINAL",
      "PRIMARY",
      "M",
      "ND",
      "ECHO",
      "00",
      "MOSAIC"
    ],
    "InPlanePhaseEncodingDirectionDICOM": "ROW",
    "InstitutionName": "NIMH",
    "InstitutionalDepartmentName": "Department",
    "MRAcquisitionType": "2D",
    "MagneticFieldStrength": 6.98,
    "Manufacturer": "Siemens",
    "ManufacturersModelName": "Investigational_Device_7T",
    "Modality": "MR",
    "ParallelReductionFactorInPlane": 3,
    "PartialFourier": 1,
    "PatientPosition": "HFS",
    "PercentPhaseFOV": 100,
    "PhaseEncodingDirection": "i",
    "PhaseEncodingSteps": 94,
    "PhaseResolution": 1,
    "PixelBandwidth": 2003,
    "ProcedureStepDescription": "UserProtocols_gonzalez",
    "ProtocolName": "NIH_EPI_2.0iso_TR2_Run09",
    "PulseSequenceDetails": "%CustomerSeq%_inati_nih_epi",
    "ReceiveCoilName": "32Ch_Head_7T",
    "ReconMatrixPE": 96,
    "RepetitionTime": 2,
    "SAR": 0.0947952,
    "ScanningSequence": "EP",
    "SequenceName": "epfid2d1_96",
    "SequenceVariant": "SK",
    "SeriesDescription": "NIH_EPI_2.0iso_TR2_Run09",
    "SeriesNumber": 13,
    "ShimSetting": [
      -53,
      37,
      1273,
      2667,
      -26,
      207,
      639,
      -318
    ],
    "SliceThickness": 2,
    "SliceTiming": [
      1.0025,
      0,
      1.04,
      0.035,
      1.0775,
      0.0725,
      1.115,
      0.11,
      1.1525,
      0.1475,
      1.19,
      0.185,
      1.225,
      0.2225,
      1.2625,
      0.26,
      1.3,
      0.2975,
      1.3375,
      0.3325,
      1.375,
      0.37,
      1.4125,
      0.4075,
      1.45,
      0.445,
      1.485,
      0.4825,
      1.5225,
      0.52,
      1.56,
      0.5575,
      1.5975,
      0.595,
      1.635,
      0.63,
      1.6725,
      0.6675,
      1.71,
      0.705,
      1.7475,
      0.7425,
      1.7825,
      0.78,
      1.82,
      0.8175,
      1.8575,
      0.855,
      1.895,
      0.8925,
      1.9325,
      0.9275,
      1.97,
      0.965
    ],
    "SoftwareVersions": "syngo_MR_B17",
    "SpacingBetweenSlices": 2,
    "StationName": "FMRIFD7T",
    "TaskName": "FullFovAttentionTask",
    "TotalReadoutTime": 0.0190001,
    "TxRefAmp": 284,
    "dataset": "ds001555",
    "dcmmeta_affine": [
      [
        -2.0,
        4.1020681296188855e-10,
        0.0,
        95.98538208007812
      ],
      [
        4.1020681296188855e-10,
        2.0,
        0.0,
        -73.09773254394531
      ],
      [
        0.0,
        0.0,
        2.0,
        -31.2679443359375
      ],
      [
        0.0,
        0.0,
        0.0,
        1.0
      ]
    ],
    "dcmmeta_reorient_transform": [
      [
        0.0,
        -1.0,
        0.0,
        95.0
      ],
      [
        1.0,
        0.0,
        0.0,
        0.0
      ],
      [
        0.0,
        0.0,
        1.0,
        0.0
      ],
      [
        0.0,
        0.0,
        0.0,
        1.0
      ]
    ],
    "dcmmeta_shape": [
      96,
      96,
      54,
      164
    ],
    "dcmmeta_slice_dim": 2,
    "dcmmeta_version": 0.6,
    "global": {
      "const": {
        "AcquisitionMatrix": [
          0,
          96,
          96,
          0
        ],
        "AngioFlag": "N",
        "BitsAllocated": 16,
        "BitsStored": 12,
        "BodyPartExamined": "HEAD",
        "Columns": 768,
        "EchoNumbers": 1,
        "EchoTime": 25.0,
        "EchoTrainLength": 1,
        "FlipAngle": 50.0,
        "HighBit": 11,
        "ImageOrientationPatient": [
          1.0,
          -2.051034e-10,
          0.0,
          2.051034e-10,
          1.0,
          0.0
        ],
        "ImagePositionPatient": [
          -767.98537955166,
          -788.90226539119,
          -31.267944335938
        ],
        "ImageType": [
          "ORIGINAL",
          "PRIMARY",
          "M",
          "ND",
          "ECHO_00",
          "MOSAIC"
        ],
        "ImagedNucleus": "1H",
        "ImagingFrequency": 297.205009,
        "InPlanePhaseEncodingDirection": "ROW",
        "LargestImagePixelValue": 4095,
        "MRAcquisitionType": "2D",
        "MagneticFieldStrength": 6.98,
        "Manufacturer": "SIEMENS",
        "ManufacturerModelName": "Investigational_Device_7T",
        "Modality": "MR",
        "NumberOfAverages": 1.0,
        "NumberOfPhaseEncodingSteps": 94,
        "PercentPhaseFieldOfView": 100.0,
        "PercentSampling": 100.0,
        "PerformedProcedureStepStartTime": "182646.437000",
        "PhotometricInterpretation": "MONOCHROME2",
        "PixelBandwidth": 2003.0,
        "PixelRepresentation": 0,
        "PixelSpacing": [
          2.0,
          2.0
        ],
        "PositionReferenceIndicator": "",
        "ProtocolName": "NIH_EPI_2.0iso_TR2_Run09",
        "RepetitionTime": 2000.0,
        "Rows": 768,
        "SAR": 0.09479516296267,
        "SamplesPerPixel": 1,
        "ScanningSequence": "EP",
        "SequenceName": "epfid2d1_96",
        "SequenceVariant": "SK",
        "SeriesDescription": "NIH_EPI_2.0iso_TR2_Run09",
        "SeriesNumber": 13,
        "SliceLocation": -31.267944335938,
        "SliceThickness": 2.0,
        "SmallestImagePixelValue": 0,
        "SoftwareVersions": "syngo MR B17",
        "SpacingBetweenSlices": 2.0,
        "TransmitCoilName": "32Ch_Head_7T",
        "VariableFlipAngleFlag": "N",
        "WindowCenterWidthExplanation": "Algo1",
        "dBdt": 0.0
      },
      "slices": {}
    },
    "modality": "bold",
    "run_id": 10,
    "session_id": "06",
    "subject_id": "003",
    "task_id": "FullFovAttentionTask",
    "time": {
      "samples": {
        "AcquisitionNumber": [
          1,
          2,
          3,
          4,
          5,
          6,
          7,
          8,
          9,
          10,
          11,
          12,
          13,
          14,
          15,
          16,
          17,
          18,
          19,
          20,
          21,
          22,
          23,
          24,
          25,
          26,
          27,
          28,
          29,
          30,
          31,
          32,
          33,
          34,
          35,
          36,
          37,
          38,
          39,
          40,
          41,
          42,
          43,
          44,
          45,
          46,
          47,
          48,
          49,
          50,
          51,
          52,
          53,
          54,
          55,
          56,
          57,
          58,
          59,
          60,
          61,
          62,
          63,
          64,
          65,
          66,
          67,
          68,
          69,
          70,
          71,
          72,
          73,
          74,
          75,
          76,
          77,
          78,
          79,
          80,
          81,
          82,
          83,
          84,
          85,
          86,
          87,
          88,
          89,
          90,
          91,
          92,
          93,
          94,
          95,
          96,
          97,
          98,
          99,
          100,
          101,
          102,
          103,
          104,
          105,
          106,
          107,
          108,
          109,
          110,
          111,
          112,
          113,
          114,
          115,
          116,
          117,
          118,
          119,
          120,
          121,
          122,
          123,
          124,
          125,
          126,
          127,
          128,
          129,
          130,
          131,
          132,
          133,
          134,
          135,
          136,
          137,
          138,
          139,
          140,
          141,
          142,
          143,
          144,
          145,
          146,
          147,
          148,
          149,
          150,
          151,
          152,
          153,
          154,
          155,
          156,
          157,
          158,
          159,
          160,
          161,
          162,
          163,
          164
        ],
        "AcquisitionTime": [
          "194554.090000",
          "194558.107500",
          "194600.115000",
          "194602.122500",
          "194604.130000",
          "194606.137500",
          "194608.147500",
          "194610.155000",
          "194612.162500",
          "194614.170000",
          "194616.177500",
          "194618.187500",
          "194620.195000",
          "194622.202500",
          "194624.210000",
          "194626.220000",
          "194628.227500",
          "194630.235000",
          "194632.242500",
          "194634.250000",
          "194636.260000",
          "194638.267500",
          "194640.275000",
          "194642.282500",
          "194644.290000",
          "194646.300000",
          "194648.307500",
          "194650.315000",
          "194652.322500",
          "194654.332500",
          "194656.340000",
          "194658.347500",
          "194700.355000",
          "194702.362500",
          "194704.372500",
          "194706.380000",
          "194708.387500",
          "194710.395000",
          "194712.402500",
          "194714.412500",
          "194716.420000",
          "194718.427500",
          "194720.435000",
          "194722.445000",
          "194724.452500",
          "194726.460000",
          "194728.467500",
          "194730.475000",
          "194732.485000",
          "194734.492500",
          "194736.500000",
          "194738.507500",
          "194740.515000",
          "194742.525000",
          "194744.532500",
          "194746.540000",
          "194748.547500",
          "194750.555000",
          "194752.565000",
          "194754.572500",
          "194756.580000",
          "194758.587500",
          "194800.597500",
          "194802.605000",
          "194804.612500",
          "194806.620000",
          "194808.627500",
          "194810.637500",
          "194812.645000",
          "194814.652500",
          "194816.660000",
          "194818.667500",
          "194820.677500",
          "194822.685000",
          "194824.692500",
          "194826.700000",
          "194828.710000",
          "194830.717500",
          "194832.725000",
          "194834.732500",
          "194836.740000",
          "194838.750000",
          "194840.757500",
          "194842.765000",
          "194844.772500",
          "194846.780000",
          "194848.790000",
          "194850.797500",
          "194852.805000",
          "194854.812500",
          "194856.822500",
          "194858.830000",
          "194900.837500",
          "194902.845000",
          "194904.852500",
          "194906.862500",
          "194908.870000",
          "194910.877500",
          "194912.885000",
          "194914.892500",
          "194916.902500",
          "194918.910000",
          "194920.917500",
          "194922.925000",
          "194924.932500",
          "194926.942500",
          "194928.950000",
          "194930.957500",
          "194932.965000",
          "194934.975000",
          "194936.982500",
          "194938.990000",
          "194940.997500",
          "194943.005000",
          "194945.015000",
          "194947.022500",
          "194949.030000",
          "194951.037500",
          "194953.045000",
          "194955.055000",
          "194957.062500",
          "194959.070000",
          "195001.077500",
          "195003.087500",
          "195005.095000",
          "195007.102500",
          "195009.110000",
          "195011.117500",
          "195013.127500",
          "195015.135000",
          "195017.142500",
          "195019.150000",
          "195021.157500",
          "195023.167500",
          "195025.175000",
          "195027.182500",
          "195029.190000",
          "195031.200000",
          "195033.207500",
          "195035.215000",
          "195037.222500",
          "195039.230000",
          "195041.240000",
          "195043.247500",
          "195045.255000",
          "195047.262500",
          "195049.270000",
          "195051.280000",
          "195053.287500",
          "195055.295000",
          "195057.302500",
          "195059.312500",
          "195101.320000",
          "195103.327500",
          "195105.335000",
          "195107.342500",
          "195109.352500",
          "195111.360000",
          "195113.367500",
          "195115.375000",
          "195117.382500",
          "195119.392500",
          "195121.400000",
          "195123.407500"
        ],
        "ContentTime": [
          "194627.890000",
          "194627.890000",
          "194627.890000",
          "194627.906000",
          "194627.906000",
          "194627.906000",
          "194627.906000",
          "194627.906000",
          "194627.906000",
          "194627.906000",
          "194627.921000",
          "194627.937000",
          "194627.937000",
          "194627.937000",
          "194627.953000",
          "194707.875000",
          "194707.890000",
          "194707.890000",
          "194707.890000",
          "194707.890000",
          "194707.906000",
          "194707.906000",
          "194707.906000",
          "194707.906000",
          "194707.906000",
          "194707.906000",
          "194707.906000",
          "194707.921000",
          "194707.921000",
          "194707.921000",
          "194707.921000",
          "194707.921000",
          "194707.921000",
          "194707.937000",
          "194707.937000",
          "194747.875000",
          "194747.890000",
          "194747.890000",
          "194747.890000",
          "194747.906000",
          "194747.906000",
          "194747.906000",
          "194747.906000",
          "194747.906000",
          "194747.906000",
          "194747.921000",
          "194747.921000",
          "194747.921000",
          "194747.921000",
          "194747.921000",
          "194747.921000",
          "194747.937000",
          "194747.937000",
          "194747.937000",
          "194747.937000",
          "194827.875000",
          "194827.890000",
          "194827.890000",
          "194827.890000",
          "194827.890000",
          "194827.890000",
          "194827.890000",
          "194827.906000",
          "194827.906000",
          "194827.906000",
          "194827.906000",
          "194827.921000",
          "194827.921000",
          "194827.921000",
          "194827.921000",
          "194827.921000",
          "194827.921000",
          "194827.937000",
          "194827.937000",
          "194827.937000",
          "194907.875000",
          "194907.890000",
          "194907.890000",
          "194907.890000",
          "194907.890000",
          "194907.890000",
          "194907.906000",
          "194907.906000",
          "194907.906000",
          "194907.906000",
          "194907.906000",
          "194907.906000",
          "194907.921000",
          "194907.921000",
          "194907.921000",
          "194907.921000",
          "194907.921000",
          "194907.921000",
          "194907.921000",
          "194907.937000",
          "194947.875000",
          "194947.890000",
          "194947.890000",
          "194947.890000",
          "194947.890000",
          "194947.890000",
          "194947.890000",
          "194947.890000",
          "194947.906000",
          "194947.906000",
          "194947.906000",
          "194947.906000",
          "194947.906000",
          "194947.906000",
          "194947.921000",
          "194947.921000",
          "194947.921000",
          "194947.921000",
          "194947.937000",
          "194947.937000",
          "195027.875000",
          "195027.890000",
          "195027.890000",
          "195027.890000",
          "195027.890000",
          "195027.890000",
          "195027.890000",
          "195027.890000",
          "195027.906000",
          "195027.906000",
          "195027.906000",
          "195027.906000",
          "195027.906000",
          "195027.906000",
          "195027.921000",
          "195027.921000",
          "195027.921000",
          "195027.921000",
          "195027.921000",
          "195027.937000",
          "195107.875000",
          "195107.890000",
          "195107.890000",
          "195107.890000",
          "195107.890000",
          "195107.890000",
          "195107.890000",
          "195107.890000",
          "195107.906000",
          "195107.906000",
          "195107.906000",
          "195107.906000",
          "195107.906000",
          "195107.906000",
          "195107.921000",
          "195107.921000",
          "195107.921000",
          "195107.937000",
          "195107.937000",
          "195107.937000",
          "195123.953000",
          "195123.953000",
          "195123.953000",
          "195123.953000",
          "195123.953000",
          "195123.953000",
          "195123.968000",
          "195123.968000",
          "195123.968000"
        ],
        "InstanceCreationTime": [
          "194627.890000",
          "194627.890000",
          "194627.890000",
          "194627.906000",
          "194627.906000",
          "194627.906000",
          "194627.906000",
          "194627.906000",
          "194627.906000",
          "194627.906000",
          "194627.921000",
          "194627.937000",
          "194627.937000",
          "194627.937000",
          "194627.953000",
          "194707.875000",
          "194707.890000",
          "194707.890000",
          "194707.890000",
          "194707.890000",
          "194707.906000",
          "194707.906000",
          "194707.906000",
          "194707.906000",
          "194707.906000",
          "194707.906000",
          "194707.906000",
          "194707.921000",
          "194707.921000",
          "194707.921000",
          "194707.921000",
          "194707.921000",
          "194707.921000",
          "194707.937000",
          "194707.937000",
          "194747.875000",
          "194747.890000",
          "194747.890000",
          "194747.890000",
          "194747.906000",
          "194747.906000",
          "194747.906000",
          "194747.906000",
          "194747.906000",
          "194747.906000",
          "194747.921000",
          "194747.921000",
          "194747.921000",
          "194747.921000",
          "194747.921000",
          "194747.921000",
          "194747.937000",
          "194747.937000",
          "194747.937000",
          "194747.937000",
          "194827.875000",
          "194827.890000",
          "194827.890000",
          "194827.890000",
          "194827.890000",
          "194827.890000",
          "194827.890000",
          "194827.906000",
          "194827.906000",
          "194827.906000",
          "194827.906000",
          "194827.921000",
          "194827.921000",
          "194827.921000",
          "194827.921000",
          "194827.921000",
          "194827.921000",
          "194827.937000",
          "194827.937000",
          "194827.937000",
          "194907.875000",
          "194907.890000",
          "194907.890000",
          "194907.890000",
          "194907.890000",
          "194907.890000",
          "194907.906000",
          "194907.906000",
          "194907.906000",
          "194907.906000",
          "194907.906000",
          "194907.906000",
          "194907.921000",
          "194907.921000",
          "194907.921000",
          "194907.921000",
          "194907.921000",
          "194907.921000",
          "194907.921000",
          "194907.937000",
          "194947.875000",
          "194947.890000",
          "194947.890000",
          "194947.890000",
          "194947.890000",
          "194947.890000",
          "194947.890000",
          "194947.890000",
          "194947.906000",
          "194947.906000",
          "194947.906000",
          "194947.906000",
          "194947.906000",
          "194947.906000",
          "194947.921000",
          "194947.921000",
          "194947.921000",
          "194947.921000",
          "194947.937000",
          "194947.937000",
          "195027.875000",
          "195027.890000",
          "195027.890000",
          "195027.890000",
          "195027.890000",
          "195027.890000",
          "195027.890000",
          "195027.890000",
          "195027.906000",
          "195027.906000",
          "195027.906000",
          "195027.906000",
          "195027.906000",
          "195027.906000",
          "195027.921000",
          "195027.921000",
          "195027.921000",
          "195027.921000",
          "195027.921000",
          "195027.937000",
          "195107.875000",
          "195107.890000",
          "195107.890000",
          "195107.890000",
          "195107.890000",
          "195107.890000",
          "195107.890000",
          "195107.890000",
          "195107.906000",
          "195107.906000",
          "195107.906000",
          "195107.906000",
          "195107.906000",
          "195107.906000",
          "195107.921000",
          "195107.921000",
          "195107.921000",
          "195107.937000",
          "195107.937000",
          "195107.937000",
          "195123.953000",
          "195123.953000",
          "195123.953000",
          "195123.953000",
          "195123.953000",
          "195123.953000",
          "195123.968000",
          "195123.968000",
          "195123.968000"
        ],
        "InstanceNumber": [
          1,
          2,
          3,
          4,
          5,
          6,
          7,
          8,
          9,
          10,
          11,
          12,
          13,
          14,
          15,
          16,
          17,
          18,
          19,
          20,
          21,
          22,
          23,
          24,
          25,
          26,
          27,
          28,
          29,
          30,
          31,
          32,
          33,
          34,
          35,
          36,
          37,
          38,
          39,
          40,
          41,
          42,
          43,
          44,
          45,
          46,
          47,
          48,
          49,
          50,
          51,
          52,
          53,
          54,
          55,
          56,
          57,
          58,
          59,
          60,
          61,
          62,
          63,
          64,
          65,
          66,
          67,
          68,
          69,
          70,
          71,
          72,
          73,
          74,
          75,
          76,
          77,
          78,
          79,
          80,
          81,
          82,
          83,
          84,
          85,
          86,
          87,
          88,
          89,
          90,
          91,
          92,
          93,
          94,
          95,
          96,
          97,
          98,
          99,
          100,
          101,
          102,
          103,
          104,
          105,
          106,
          107,
          108,
          109,
          110,
          111,
          112,
          113,
          114,
          115,
          116,
          117,
          118,
          119,
          120,
          121,
          122,
          123,
          124,
          125,
          126,
          127,
          128,
          129,
          130,
          131,
          132,
          133,
          134,
          135,
          136,
          137,
          138,
          139,
          140,
          141,
          142,
          143,
          144,
          145,
          146,
          147,
          148,
          149,
          150,
          151,
          152,
          153,
          154,
          155,
          156,
          157,
          158,
          159,
          160,
          161,
          162,
          163,
          164
        ],
        "WindowCenter": [
          968.0,
          969.0,
          969.0,
          970.0,
          970.0,
          969.0,
          966.0,
          966.0,
          965.0,
          966.0,
          966.0,
          965.0,
          966.0,
          966.0,
          967.0,
          966.0,
          967.0,
          967.0,
          968.0,
          967.0,
          968.0,
          969.0,
          969.0,
          970.0,
          969.0,
          967.0,
          966.0,
          967.0,
          967.0,
          967.0,
          966.0,
          965.0,
          966.0,
          967.0,
          967.0,
          966.0,
          966.0,
          966.0,
          967.0,
          967.0,
          966.0,
          967.0,
          966.0,
          966.0,
          965.0,
          967.0,
          968.0,
          968.0,
          969.0,
          966.0,
          966.0,
          967.0,
          967.0,
          968.0,
          968.0,
          968.0,
          968.0,
          968.0,
          968.0,
          966.0,
          963.0,
          963.0,
          964.0,
          964.0,
          965.0,
          965.0,
          965.0,
          964.0,
          964.0,
          965.0,
          965.0,
          964.0,
          966.0,
          965.0,
          966.0,
          965.0,
          964.0,
          964.0,
          965.0,
          965.0,
          965.0,
          965.0,
          966.0,
          967.0,
          967.0,
          967.0,
          966.0,
          965.0,
          965.0,
          965.0,
          966.0,
          966.0,
          965.0,
          964.0,
          965.0,
          964.0,
          965.0,
          967.0,
          965.0,
          964.0,
          964.0,
          965.0,
          966.0,
          967.0,
          966.0,
          966.0,
          966.0,
          966.0,
          966.0,
          965.0,
          966.0,
          966.0,
          966.0,
          967.0,
          968.0,
          966.0,
          966.0,
          965.0,
          965.0,
          965.0,
          964.0,
          965.0,
          965.0,
          965.0,
          965.0,
          964.0,
          964.0,
          964.0,
          964.0,
          965.0,
          966.0,
          965.0,
          966.0,
          965.0,
          965.0,
          966.0,
          967.0,
          966.0,
          967.0,
          967.0,
          967.0,
          967.0,
          967.0,
          965.0,
          966.0,
          964.0,
          964.0,
          965.0,
          965.0,
          966.0,
          966.0,
          966.0,
          966.0,
          964.0,
          964.0,
          965.0,
          964.0,
          965.0,
          965.0,
          966.0,
          966.0,
          965.0,
          966.0,
          966.0
        ],
        "WindowWidth": [
          2656.0,
          2656.0,
          2664.0,
          2673.0,
          2668.0,
          2654.0,
          2648.0,
          2649.0,
          2651.0,
          2652.0,
          2650.0,
          2653.0,
          2655.0,
          2655.0,
          2657.0,
          2661.0,
          2661.0,
          2659.0,
          2655.0,
          2655.0,
          2659.0,
          2662.0,
          2666.0,
          2668.0,
          2664.0,
          2657.0,
          2652.0,
          2657.0,
          2657.0,
          2651.0,
          2647.0,
          2651.0,
          2658.0,
          2659.0,
          2656.0,
          2654.0,
          2657.0,
          2661.0,
          2660.0,
          2659.0,
          2660.0,
          2660.0,
          2659.0,
          2657.0,
          2659.0,
          2666.0,
          2669.0,
          2663.0,
          2652.0,
          2647.0,
          2649.0,
          2654.0,
          2660.0,
          2664.0,
          2665.0,
          2671.0,
          2674.0,
          2669.0,
          2658.0,
          2644.0,
          2634.0,
          2633.0,
          2640.0,
          2642.0,
          2642.0,
          2643.0,
          2645.0,
          2649.0,
          2651.0,
          2652.0,
          2647.0,
          2647.0,
          2652.0,
          2655.0,
          2654.0,
          2653.0,
          2650.0,
          2651.0,
          2648.0,
          2647.0,
          2647.0,
          2652.0,
          2657.0,
          2657.0,
          2656.0,
          2655.0,
          2647.0,
          2641.0,
          2641.0,
          2644.0,
          2646.0,
          2645.0,
          2642.0,
          2642.0,
          2642.0,
          2646.0,
          2654.0,
          2656.0,
          2652.0,
          2649.0,
          2651.0,
          2657.0,
          2662.0,
          2660.0,
          2656.0,
          2655.0,
          2656.0,
          2656.0,
          2649.0,
          2645.0,
          2648.0,
          2653.0,
          2660.0,
          2667.0,
          2665.0,
          2659.0,
          2653.0,
          2648.0,
          2646.0,
          2644.0,
          2643.0,
          2642.0,
          2644.0,
          2645.0,
          2646.0,
          2644.0,
          2645.0,
          2649.0,
          2652.0,
          2655.0,
          2655.0,
          2654.0,
          2651.0,
          2650.0,
          2653.0,
          2656.0,
          2656.0,
          2658.0,
          2655.0,
          2658.0,
          2667.0,
          2669.0,
          2658.0,
          2644.0,
          2637.0,
          2636.0,
          2641.0,
          2643.0,
          2652.0,
