{
  "aor": 0.0018702439024390243,
  "aqi": 0.003834555182926829,
  "bids_meta": {
    "AcquisitionMatrixPE": 96,
    "AcquisitionNumber": 1,
    "AcquisitionTime": "19:44:44.915000",
    "BandwidthPerPixelPhaseEncode": 52.083,
    "BaseResolution": 96,
    "BodyPartExamined": "HEAD",
    "ConversionSoftware": "dcm2niix",
    "ConversionSoftwareVersion": "v1.0.20180622 GCC6.3.0",
    "DerivedVendorReportedEchoSpacing": 0.000600004,
    "DeviceSerialNumber": "18926",
    "DwellTime": 2.6e-06,
    "EchoTime": 0.025,
    "EffectiveEchoSpacing": 0.000200001,
    "FlipAngle": 50,
    "ImageOrientationPatientDICOM": [
      0.999992,
      0.00067012,
      0.00404905,
      2.11009e-10,
      0.98658,
      -0.16328
    ],
    "ImageType": [
      "ORIGINAL",
      "PRIMARY",
      "M",
      "ND",
      "ECHO",
      "00",
      "MOSAIC"
    ],
    "InPlanePhaseEncodingDirectionDICOM": "ROW",
    "InstitutionName": "NIMH",
    "InstitutionalDepartmentName": "Department",
    "MRAcquisitionType": "2D",
    "MagneticFieldStrength": 6.98,
    "Manufacturer": "Siemens",
    "ManufacturersModelName": "Investigational_Device_7T",
    "Modality": "MR",
    "ParallelReductionFactorInPlane": 3,
    "PartialFourier": 1,
    "PatientPosition": "HFS",
    "PercentPhaseFOV": 100,
    "PhaseEncodingDirection": "i",
    "PhaseEncodingSteps": 94,
    "PhaseResolution": 1,
    "PixelBandwidth": 2003,
    "ProcedureStepDescription": "MRI_Procedure_Limited",
    "ProtocolName": "NIH_EPI_2.0iso_TR2_Run11",
    "PulseSequenceDetails": "%CustomerSeq%_inati_nih_epi",
    "ReceiveCoilName": "32Ch_Head_7T",
    "ReconMatrixPE": 96,
    "RepetitionTime": 2,
    "SAR": 0.0856902,
    "ScanningSequence": "EP",
    "SequenceName": "epfid2d1_96",
    "SequenceVariant": "SK",
    "SeriesDescription": "NIH_EPI_2.0iso_TR2_Run11",
    "SeriesNumber": 16,
    "ShimSetting": [
      -93,
      133,
      1370,
      2277,
      -119,
      -62,
      1168,
      -283
    ],
    "SliceThickness": 2,
    "SliceTiming": [
      1.005,
      0,
      1.0425,
      0.0375,
      1.08,
      0.075,
      1.115,
      0.1125,
      1.1525,
      0.15,
      1.19,
      0.1875,
      1.2275,
      0.225,
      1.265,
      0.26,
      1.3025,
      0.2975,
      1.34,
      0.335,
      1.3775,
      0.3725,
      1.4125,
      0.41,
      1.45,
      0.4475,
      1.4875,
      0.485,
      1.525,
      0.5225,
      1.5625,
      0.5575,
      1.6,
      0.595,
      1.6375,
      0.6325,
      1.675,
      0.67,
      1.71,
      0.7075,
      1.7475,
      0.745,
      1.785,
      0.7825,
      1.8225,
      0.82,
      1.86,
      0.855,
      1.8975,
      0.8925,
      1.935,
      0.93,
      1.9725,
      0.9675
    ],
    "SoftwareVersions": "syngo_MR_B17",
    "SpacingBetweenSlices": 2,
    "StationName": "FMRIFD7T",
    "TaskName": "FullFovNoAttentionTask",
    "TotalReadoutTime": 0.0190001,
    "TxRefAmp": 292,
    "dataset": "ds001555",
    "dcmmeta_affine": [
      [
        -1.9999831914901733,
        4.2201880878778297e-10,
        0.008208253420889378,
        95.76705169677734
      ],
      [
        -0.0013402394251897931,
        1.973159670829773,
        -0.32655632495880127,
        -61.768768310546875
      ],
      [
        0.008098097518086433,
        0.32655906677246094,
        1.9731431007385254,
        -34.148643493652344
      ],
      [
        0.0,
        0.0,
        0.0,
        1.0
      ]
    ],
    "dcmmeta_reorient_transform": [
      [
        0.0,
        -1.0,
        0.0,
        95.0
      ],
      [
        1.0,
        0.0,
        0.0,
        0.0
      ],
      [
        0.0,
        0.0,
        1.0,
        0.0
      ],
      [
        0.0,
        0.0,
        0.0,
        1.0
      ]
    ],
    "dcmmeta_shape": [
      96,
      96,
      54,
      164
    ],
    "dcmmeta_slice_dim": 2,
    "dcmmeta_version": 0.6,
    "global": {
      "const": {
        "AcquisitionMatrix": [
          0,
          96,
          96,
          0
        ],
        "Allergies": "No Known Allergies",
        "AngioFlag": "N",
        "BitsAllocated": 16,
        "BitsStored": 12,
        "BodyPartExamined": "HEAD",
        "Columns": 768,
        "EchoNumbers": 1,
        "EchoTime": 25.0,
        "EchoTrainLength": 1,
        "FlipAngle": 50.0,
        "HighBit": 11,
        "ImageOrientationPatient": [
          0.99999157803662,
          0.00067011969073,
          0.00404904870684,
          2.110094e-10,
          0.98657984636313,
          -0.1632795356133
        ],
        "ImagePositionPatient": [
          -767.761392775,
          -789.11337897392,
          103.87735661079
        ],
        "ImageType": [
          "ORIGINAL",
          "PRIMARY",
          "M",
          "ND",
          "ECHO_00",
          "MOSAIC"
        ],
        "ImagedNucleus": "1H",
        "ImagingFrequency": 297.205023,
        "InPlanePhaseEncodingDirection": "ROW",
        "LargestImagePixelValue": 4095,
        "MRAcquisitionType": "2D",
        "MagneticFieldStrength": 6.98,
        "Manufacturer": "SIEMENS",
        "ManufacturerModelName": "Investigational_Device_7T",
        "Modality": "MR",
        "NumberOfAverages": 1.0,
        "NumberOfPhaseEncodingSteps": 94,
        "PercentPhaseFieldOfView": 100.0,
        "PercentSampling": 100.0,
        "PerformedProcedureStepStartTime": "181540.759000",
        "PhotometricInterpretation": "MONOCHROME2",
        "PixelBandwidth": 2003.0,
        "PixelRepresentation": 0,
        "PixelSpacing": [
          2.0,
          2.0
        ],
        "PositionReferenceIndicator": "",
        "ProcedureCodeSequence": [
          {
            "CodeMeaning": "MRI Procedure Limited",
            "CodeValue": "MI01491",
            "CodingSchemeDesignator": "USA Standard",
            "ContextIdentifier": "4000107252"
          }
        ],
        "ProtocolName": "NIH_EPI_2.0iso_TR2_Run11",
        "ReferencedStudySequence": [
          {
            "ReferencedSOPClassUID": "1.2.840.10008.3.1.2.3.1",
            "ReferencedSOPInstanceUID": "1.2.840.113564.9.1.2723958737.61.2.5000073014"
          }
        ],
        "RepetitionTime": 2000.0,
        "RequestedProcedureCodeSequence": [
          {
            "CodeMeaning": "MRI Procedure Limited",
            "CodeValue": "MI01491",
            "CodingSchemeDesignator": "USA Standard",
            "ContextIdentifier": "4000107252"
          }
        ],
        "RequestingService": "MHED",
        "Rows": 768,
        "SAR": 0.08569017315284,
        "SamplesPerPixel": 1,
        "ScanningSequence": "EP",
        "SequenceName": "epfid2d1_96",
        "SequenceVariant": "SK",
        "SeriesDescription": "NIH_EPI_2.0iso_TR2_Run11",
        "SeriesNumber": 16,
        "SliceLocation": -23.21154749564,
        "SliceThickness": 2.0,
        "SmallestImagePixelValue": 0,
        "SoftwareVersions": "syngo MR B17",
        "SpacingBetweenSlices": 1.9999999799801,
        "TransmitCoilName": "32Ch_Head_7T",
        "VariableFlipAngleFlag": "N",
        "WindowCenterWidthExplanation": "Algo1",
        "dBdt": 0.0
      },
      "slices": {}
    },
    "modality": "bold",
    "run_id": 13,
    "session_id": "01",
    "subject_id": "002",
    "task_id": "FullFovNoAttentionTask",
    "time": {
      "samples": {
        "AcquisitionNumber": [
          1,
          2,
          3,
          4,
          5,
          6,
          7,
          8,
          9,
          10,
          11,
          12,
          13,
          14,
          15,
          16,
          17,
          18,
          19,
          20,
          21,
          22,
          23,
          24,
          25,
          26,
          27,
          28,
          29,
          30,
          31,
          32,
          33,
          34,
          35,
          36,
          37,
          38,
          39,
          40,
          41,
          42,
          43,
          44,
          45,
          46,
          47,
          48,
          49,
          50,
          51,
          52,
          53,
          54,
          55,
          56,
          57,
          58,
          59,
          60,
          61,
          62,
          63,
          64,
          65,
          66,
          67,
          68,
          69,
          70,
          71,
          72,
          73,
          74,
          75,
          76,
          77,
          78,
          79,
          80,
          81,
          82,
          83,
          84,
          85,
          86,
          87,
          88,
          89,
          90,
          91,
          92,
          93,
          94,
          95,
          96,
          97,
          98,
          99,
          100,
          101,
          102,
          103,
          104,
          105,
          106,
          107,
          108,
          109,
          110,
          111,
          112,
          113,
          114,
          115,
          116,
          117,
          118,
          119,
          120,
          121,
          122,
          123,
          124,
          125,
          126,
          127,
          128,
          129,
          130,
          131,
          132,
          133,
          134,
          135,
          136,
          137,
          138,
          139,
          140,
          141,
          142,
          143,
          144,
          145,
          146,
          147,
          148,
          149,
          150,
          151,
          152,
          153,
          154,
          155,
          156,
          157,
          158,
          159,
          160,
          161,
          162,
          163,
          164
        ],
        "AcquisitionTime": [
          "194444.915000",
          "194448.930000",
          "194450.940000",
          "194452.947500",
          "194454.955000",
          "194456.962500",
          "194458.970000",
          "194500.980000",
          "194502.987500",
          "194504.995000",
          "194507.002500",
          "194509.010000",
          "194511.020000",
          "194513.027500",
          "194515.035000",
          "194517.042500",
          "194519.050000",
          "194521.060000",
          "194523.067500",
          "194525.075000",
          "194527.082500",
          "194529.092500",
          "194531.100000",
          "194533.107500",
          "194535.115000",
          "194537.122500",
          "194539.132500",
          "194541.140000",
          "194543.147500",
          "194545.155000",
          "194547.162500",
          "194549.172500",
          "194551.180000",
          "194553.187500",
          "194555.195000",
          "194557.205000",
          "194559.212500",
          "194601.220000",
          "194603.227500",
          "194605.235000",
          "194607.245000",
          "194609.252500",
          "194611.260000",
          "194613.267500",
          "194615.275000",
          "194617.285000",
          "194619.292500",
          "194621.300000",
          "194623.307500",
          "194625.317500",
          "194627.325000",
          "194629.332500",
          "194631.340000",
          "194633.347500",
          "194635.357500",
          "194637.365000",
          "194639.372500",
          "194641.380000",
          "194643.387500",
          "194645.397500",
          "194647.405000",
          "194649.412500",
          "194651.420000",
          "194653.427500",
          "194655.437500",
          "194657.445000",
          "194659.452500",
          "194701.460000",
          "194703.470000",
          "194705.477500",
          "194707.485000",
          "194709.492500",
          "194711.500000",
          "194713.510000",
          "194715.517500",
          "194717.525000",
          "194719.532500",
          "194721.540000",
          "194723.550000",
          "194725.557500",
          "194727.565000",
          "194729.572500",
          "194731.582500",
          "194733.590000",
          "194735.597500",
          "194737.605000",
          "194739.612500",
          "194741.622500",
          "194743.630000",
          "194745.637500",
          "194747.645000",
          "194749.652500",
          "194751.662500",
          "194753.670000",
          "194755.677500",
          "194757.685000",
          "194759.695000",
          "194801.702500",
          "194803.710000",
          "194805.717500",
          "194807.725000",
          "194809.735000",
          "194811.742500",
          "194813.750000",
          "194815.757500",
          "194817.765000",
          "194819.775000",
          "194821.782500",
          "194823.790000",
          "194825.797500",
          "194827.805000",
          "194829.815000",
          "194831.822500",
          "194833.830000",
          "194835.837500",
          "194837.847500",
          "194839.855000",
          "194841.862500",
          "194843.870000",
          "194845.877500",
          "194847.887500",
          "194849.895000",
          "194851.902500",
          "194853.910000",
          "194855.917500",
          "194857.927500",
          "194859.935000",
          "194901.942500",
          "194903.950000",
          "194905.960000",
          "194907.967500",
          "194909.975000",
          "194911.982500",
          "194913.990000",
          "194916.000000",
          "194918.007500",
          "194920.015000",
          "194922.022500",
          "194924.030000",
          "194926.040000",
          "194928.047500",
          "194930.055000",
          "194932.062500",
          "194934.072500",
          "194936.080000",
          "194938.087500",
          "194940.095000",
          "194942.102500",
          "194944.112500",
          "194946.120000",
          "194948.127500",
          "194950.135000",
          "194952.142500",
          "194954.152500",
          "194956.160000",
          "194958.167500",
          "195000.175000",
          "195002.185000",
          "195004.192500",
          "195006.200000",
          "195008.207500",
          "195010.215000",
          "195012.225000",
          "195014.232500"
        ],
        "ContentTime": [
          "194533.493000",
          "194533.493000",
          "194533.493000",
          "194533.493000",
          "194533.493000",
          "194533.509000",
          "194533.509000",
          "194533.509000",
          "194533.509000",
          "194533.509000",
          "194533.509000",
          "194533.509000",
          "194533.524000",
          "194533.524000",
          "194533.524000",
          "194533.524000",
          "194533.524000",
          "194533.524000",
          "194533.540000",
          "194533.540000",
          "194533.540000",
          "194533.540000",
          "194533.540000",
          "194613.477000",
          "194613.477000",
          "194613.477000",
          "194613.493000",
          "194613.493000",
          "194613.493000",
          "194613.493000",
          "194613.493000",
          "194613.493000",
          "194613.509000",
          "194613.509000",
          "194613.509000",
          "194613.524000",
          "194613.524000",
          "194613.524000",
          "194613.524000",
          "194613.540000",
          "194613.540000",
          "194613.540000",
          "194613.540000",
          "194653.477000",
          "194653.477000",
          "194653.493000",
          "194653.493000",
          "194653.493000",
          "194653.493000",
          "194653.493000",
          "194653.493000",
          "194653.509000",
          "194653.509000",
          "194653.509000",
          "194653.509000",
          "194653.524000",
          "194653.524000",
          "194653.524000",
          "194653.524000",
          "194653.524000",
          "194653.524000",
          "194653.524000",
          "194653.540000",
          "194733.477000",
          "194733.477000",
          "194733.477000",
          "194733.477000",
          "194733.493000",
          "194733.493000",
          "194733.493000",
          "194733.493000",
          "194733.493000",
          "194733.493000",
          "194733.509000",
          "194733.509000",
          "194733.509000",
          "194733.509000",
          "194733.509000",
          "194733.509000",
          "194733.509000",
          "194733.524000",
          "194733.524000",
          "194733.524000",
          "194813.477000",
          "194813.477000",
          "194813.477000",
          "194813.493000",
          "194813.493000",
          "194813.493000",
          "194813.493000",
          "194813.493000",
          "194813.493000",
          "194813.493000",
          "194813.509000",
          "194813.509000",
          "194813.509000",
          "194813.509000",
          "194813.509000",
          "194813.509000",
          "194813.524000",
          "194813.524000",
          "194813.524000",
          "194813.524000",
          "194853.477000",
          "194853.477000",
          "194853.477000",
          "194853.477000",
          "194853.493000",
          "194853.493000",
          "194853.493000",
          "194853.509000",
          "194853.509000",
          "194853.509000",
          "194853.509000",
          "194853.509000",
          "194853.509000",
          "194853.509000",
          "194853.524000",
          "194853.524000",
          "194853.524000",
          "194853.524000",
          "194853.524000",
          "194853.524000",
          "194933.477000",
          "194933.477000",
          "194933.477000",
          "194933.477000",
          "194933.493000",
          "194933.493000",
          "194933.493000",
          "194933.509000",
          "194933.509000",
          "194933.509000",
          "194933.509000",
          "194933.509000",
          "194933.509000",
          "194933.509000",
          "194933.524000",
          "194933.524000",
          "194933.524000",
          "194933.524000",
          "194933.524000",
          "194933.524000",
          "194953.477000",
          "194953.477000",
          "194953.477000",
          "194953.493000",
          "194953.493000",
          "194953.493000",
          "194953.493000",
          "194953.493000",
          "194953.493000",
          "194953.493000",
          "195015.102000",
          "195015.118000",
          "195015.118000",
          "195015.118000",
          "195015.118000",
          "195015.118000",
          "195015.118000",
          "195015.134000",
          "195015.134000",
          "195015.134000",
          "195015.134000"
        ],
        "InstanceCreationTime": [
          "194533.493000",
          "194533.493000",
          "194533.493000",
          "194533.493000",
          "194533.493000",
          "194533.509000",
          "194533.509000",
          "194533.509000",
          "194533.509000",
          "194533.509000",
          "194533.509000",
          "194533.509000",
          "194533.524000",
          "194533.524000",
          "194533.524000",
          "194533.524000",
          "194533.524000",
          "194533.524000",
          "194533.540000",
          "194533.540000",
          "194533.540000",
          "194533.540000",
          "194533.540000",
          "194613.477000",
          "194613.477000",
          "194613.477000",
          "194613.493000",
          "194613.493000",
          "194613.493000",
          "194613.493000",
          "194613.493000",
          "194613.493000",
          "194613.509000",
          "194613.509000",
          "194613.509000",
          "194613.524000",
          "194613.524000",
          "194613.524000",
          "194613.524000",
          "194613.540000",
          "194613.540000",
          "194613.540000",
          "194613.540000",
          "194653.477000",
          "194653.477000",
          "194653.493000",
          "194653.493000",
          "194653.493000",
          "194653.493000",
          "194653.493000",
          "194653.493000",
          "194653.509000",
          "194653.509000",
          "194653.509000",
          "194653.509000",
          "194653.524000",
          "194653.524000",
          "194653.524000",
          "194653.524000",
          "194653.524000",
          "194653.524000",
          "194653.524000",
          "194653.540000",
          "194733.477000",
          "194733.477000",
          "194733.477000",
          "194733.477000",
          "194733.493000",
          "194733.493000",
          "194733.493000",
          "194733.493000",
          "194733.493000",
          "194733.493000",
          "194733.509000",
          "194733.509000",
          "194733.509000",
          "194733.509000",
          "194733.509000",
          "194733.509000",
          "194733.509000",
          "194733.524000",
          "194733.524000",
          "194733.524000",
          "194813.477000",
          "194813.477000",
          "194813.477000",
          "194813.493000",
          "194813.493000",
          "194813.493000",
          "194813.493000",
          "194813.493000",
          "194813.493000",
          "194813.493000",
          "194813.509000",
          "194813.509000",
          "194813.509000",
          "194813.509000",
          "194813.509000",
          "194813.509000",
          "194813.524000",
          "194813.524000",
          "194813.524000",
          "194813.524000",
          "194853.477000",
          "194853.477000",
          "194853.477000",
          "194853.477000",
          "194853.493000",
          "194853.493000",
          "194853.493000",
          "194853.509000",
          "194853.509000",
          "194853.509000",
          "194853.509000",
          "194853.509000",
          "194853.509000",
          "194853.509000",
          "194853.524000",
          "194853.524000",
          "194853.524000",
          "194853.524000",
          "194853.524000",
          "194853.524000",
          "194933.477000",
          "194933.477000",
          "194933.477000",
          "194933.477000",
          "194933.493000",
          "194933.493000",
          "194933.493000",
          "194933.509000",
          "194933.509000",
          "194933.509000",
          "194933.509000",
          "194933.509000",
          "194933.509000",
          "194933.509000",
          "194933.524000",
          "194933.524000",
          "194933.524000",
          "194933.524000",
          "194933.524000",
          "194933.524000",
          "194953.477000",
          "194953.477000",
          "194953.477000",
          "194953.493000",
          "194953.493000",
          "194953.493000",
          "194953.493000",
          "194953.493000",
          "194953.493000",
          "194953.493000",
          "195015.102000",
          "195015.118000",
          "195015.118000",
          "195015.118000",
          "195015.118000",
          "195015.118000",
          "195015.118000",
          "195015.134000",
          "195015.134000",
          "195015.134000",
          "195015.134000"
        ],
        "InstanceNumber": [
          1,
          2,
          3,
          4,
          5,
          6,
          7,
          8,
          9,
          10,
          11,
          12,
          13,
          14,
          15,
          16,
          17,
          18,
          19,
          20,
          21,
          22,
          23,
          24,
          25,
          26,
          27,
          28,
          29,
          30,
          31,
          32,
          33,
          34,
          35,
          36,
          37,
          38,
          39,
          40,
          41,
          42,
          43,
          44,
          45,
          46,
          47,
          48,
          49,
          50,
          51,
          52,
          53,
          54,
          55,
          56,
          57,
          58,
          59,
          60,
          61,
          62,
          63,
          64,
          65,
          66,
          67,
          68,
          69,
          70,
          71,
          72,
          73,
          74,
          75,
          76,
          77,
          78,
          79,
          80,
          81,
          82,
          83,
          84,
          85,
          86,
          87,
          88,
          89,
          90,
          91,
          92,
          93,
          94,
          95,
          96,
          97,
          98,
          99,
          100,
          101,
          102,
          103,
          104,
          105,
          106,
          107,
          108,
          109,
          110,
          111,
          112,
          113,
          114,
          115,
          116,
          117,
          118,
          119,
          120,
          121,
          122,
          123,
          124,
          125,
          126,
          127,
          128,
          129,
          130,
          131,
          132,
          133,
          134,
          135,
          136,
          137,
          138,
          139,
          140,
          141,
          142,
          143,
          144,
          145,
          146,
          147,
          148,
          149,
          150,
          151,
          152,
          153,
          154,
          155,
          156,
          157,
          158,
          159,
          160,
          161,
          162,
          163,
          164
        ],
        "WindowCenter": [
          1068.0,
          1067.0,
          1067.0,
          1067.0,
          1066.0,
          1067.0,
          1067.0,
          1066.0,
          1068.0,
          1066.0,
          1067.0,
          1068.0,
          1067.0,
          1068.0,
          1067.0,
          1068.0,
          1068.0,
          1069.0,
          1067.0,
          1067.0,
          1067.0,
          1067.0,
          1068.0,
          1068.0,
          1068.0,
          1067.0,
          1068.0,
          1068.0,
          1069.0,
          1066.0,
          1065.0,
          1065.0,
          1066.0,
          1066.0,
          1065.0,
          1066.0,
          1066.0,
          1067.0,
          1067.0,
          1068.0,
          1068.0,
          1068.0,
          1069.0,
          1067.0,
          1068.0,
          1069.0,
          1070.0,
          1068.0,
          1068.0,
          1067.0,
          1067.0,
          1068.0,
          1067.0,
          1068.0,
          1068.0,
          1067.0,
          1067.0,
          1067.0,
          1068.0,
          1068.0,
          1068.0,
          1068.0,
          1067.0,
          1067.0,
          1067.0,
          1069.0,
          1068.0,
          1065.0,
          1066.0,
          1067.0,
          1066.0,
          1066.0,
          1068.0,
          1067.0,
          1068.0,
          1065.0,
          1065.0,
          1066.0,
          1069.0,
          1066.0,
          1066.0,
          1067.0,
          1068.0,
          1067.0,
          1069.0,
          1068.0,
          1068.0,
          1067.0,
          1068.0,
          1067.0,
          1067.0,
          1066.0,
          1064.0,
          1065.0,
          1066.0,
          1067.0,
          1067.0,
          1068.0,
          1067.0,
          1069.0,
          1068.0,
          1067.0,
          1067.0,
          1065.0,
          1067.0,
          1068.0,
          1066.0,
          1064.0,
          1064.0,
          1065.0,
          1067.0,
          1064.0,
          1064.0,
          1064.0,
          1066.0,
          1066.0,
          1066.0,
          1064.0,
          1066.0,
          1067.0,
          1066.0,
          1066.0,
          1067.0,
          1066.0,
          1063.0,
          1066.0,
          1067.0,
          1069.0,
          1065.0,
          1066.0,
          1067.0,
          1066.0,
          1067.0,
          1065.0,
          1065.0,
          1066.0,
          1066.0,
          1066.0,
          1067.0,
          1067.0,
          1067.0,
          1067.0,
          1067.0,
          1067.0,
          1068.0,
          1069.0,
          1067.0,
          1067.0,
          1066.0,
          1066.0,
          1065.0,
          1067.0,
          1067.0,
          1066.0,
          1065.0,
          1065.0,
          1067.0,
          1067.0,
          1066.0,
          1066.0,
          1065.0,
          1067.0,
          1072.0,
          1072.0
        ],
        "WindowWidth": [
          2866.0,
          2860.0,
          2866.0,
          2861.0,
          2855.0,
          2866.0,
          2860.0,
          2859.0,
          2864.0,
          2854.0,
          2860.0,
          2861.0,
          2861.0,
          2860.0,
          2858.0,
          2860.0,
          2862.0,
          2864.0,
          2853.0,
          2862.0,
          2854.0,
          2858.0,
          2857.0,
          2861.0,
          2860.0,
          2858.0,
          2857.0,
          2862.0,
          2866.0,
          2856.0,
          2858.0,
          2857.0,
          2862.0,
          2859.0,
          2861.0,
          2859.0,
          2865.0,
          2862.0,
          2867.0,
          2870.0,
          2866.0,
          2859.0,
          2867.0,
          2863.0,
          2870.0,
          2868.0,
          2869.0,
          2861.0,
          2867.0,
          2861.0,
          2860.0,
          2859.0,
          2859.0,
          2865.0,
          2863.0,
          2859.0,
          2862.0,
          2860.0,
          2866.0,
          2864.0,
          2865.0,
          2864.0,
          2858.0,
          2859.0,
          2857.0,
          2871.0,
          2862.0,
          2853.0,
          2857.0,
          2862.0,
          2856.0,
          2861.0,
          2862.0,
          2861.0,
          2864.0,
          2862.0,
          2860.0,
          2864.0,
          2865.0,
          2855.0,
          2862.0,
          2860.0,
