{
  "aor": 0.0012883536585365854,
  "aqi": 0.005052921524390244,
  "bids_meta": {
    "AcquisitionMatrixPE": 96,
    "AcquisitionNumber": 1,
    "AcquisitionTime": "18:38:19.130000",
    "BandwidthPerPixelPhaseEncode": 52.083,
    "BaseResolution": 96,
    "BodyPartExamined": "HEAD",
    "ConversionSoftware": "dcm2niix",
    "ConversionSoftwareVersion": "v1.0.20180622 GCC6.3.0",
    "DerivedVendorReportedEchoSpacing": 0.000600004,
    "DeviceSerialNumber": "18926",
    "DwellTime": 2.6e-06,
    "EchoTime": 0.025,
    "EffectiveEchoSpacing": 0.000200001,
    "FlipAngle": 50,
    "ImageOrientationPatientDICOM": [
      0.999992,
      0.00067012,
      0.00404905,
      2.11009e-10,
      0.98658,
      -0.16328
    ],
    "ImageType": [
      "ORIGINAL",
      "PRIMARY",
      "M",
      "ND",
      "ECHO",
      "00",
      "MOSAIC"
    ],
    "InPlanePhaseEncodingDirectionDICOM": "ROW",
    "InstitutionName": "NIMH",
    "InstitutionalDepartmentName": "Department",
    "MRAcquisitionType": "2D",
    "MagneticFieldStrength": 6.98,
    "Manufacturer": "Siemens",
    "ManufacturersModelName": "Investigational_Device_7T",
    "Modality": "MR",
    "ParallelReductionFactorInPlane": 3,
    "PartialFourier": 1,
    "PatientPosition": "HFS",
    "PercentPhaseFOV": 100,
    "PhaseEncodingDirection": "i",
    "PhaseEncodingSteps": 94,
    "PhaseResolution": 1,
    "PixelBandwidth": 2003,
    "ProcedureStepDescription": "MRI_Procedure_Limited",
    "ProtocolName": "NIH_EPI_2.0iso_TR2_Run01",
    "PulseSequenceDetails": "%CustomerSeq%_inati_nih_epi",
    "ReceiveCoilName": "32Ch_Head_7T",
    "ReconMatrixPE": 96,
    "RepetitionTime": 2,
    "SAR": 0.0856902,
    "ScanningSequence": "EP",
    "SequenceName": "epfid2d1_96",
    "SequenceVariant": "SK",
    "SeriesDescription": "NIH_EPI_2.0iso_TR2_Run01",
    "SeriesNumber": 6,
    "ShimSetting": [
      -93,
      133,
      1370,
      2277,
      -119,
      -62,
      1168,
      -283
    ],
    "SliceThickness": 2,
    "SliceTiming": [
      1.0025,
      0,
      1.04,
      0.0375,
      1.0775,
      0.075,
      1.115,
      0.11,
      1.1525,
      0.1475,
      1.19,
      0.185,
      1.2275,
      0.2225,
      1.2625,
      0.26,
      1.3,
      0.2975,
      1.3375,
      0.335,
      1.375,
      0.3725,
      1.4125,
      0.4075,
      1.45,
      0.445,
      1.4875,
      0.4825,
      1.525,
      0.52,
      1.56,
      0.5575,
      1.5975,
      0.595,
      1.635,
      0.6325,
      1.6725,
      0.6675,
      1.71,
      0.705,
      1.7475,
      0.7425,
      1.785,
      0.78,
      1.82,
      0.8175,
      1.8575,
      0.855,
      1.895,
      0.8925,
      1.9325,
      0.93,
      1.97,
      0.965
    ],
    "SoftwareVersions": "syngo_MR_B17",
    "SpacingBetweenSlices": 2,
    "StationName": "FMRIFD7T",
    "TaskName": "FullFovNoAttentionTask",
    "TotalReadoutTime": 0.0190001,
    "TxRefAmp": 292,
    "dataset": "ds001555",
    "dcmmeta_affine": [
      [
        -1.9999831914901733,
        4.2201880878778297e-10,
        0.008208253420889378,
        95.76705169677734
      ],
      [
        -0.0013402394251897931,
        1.973159670829773,
        -0.32655632495880127,
        -61.768768310546875
      ],
      [
        0.008098097518086433,
        0.32655906677246094,
        1.9731431007385254,
        -34.148643493652344
      ],
      [
        0.0,
        0.0,
        0.0,
        1.0
      ]
    ],
    "dcmmeta_reorient_transform": [
      [
        0.0,
        -1.0,
        0.0,
        95.0
      ],
      [
        1.0,
        0.0,
        0.0,
        0.0
      ],
      [
        0.0,
        0.0,
        1.0,
        0.0
      ],
      [
        0.0,
        0.0,
        0.0,
        1.0
      ]
    ],
    "dcmmeta_shape": [
      96,
      96,
      54,
      164
    ],
    "dcmmeta_slice_dim": 2,
    "dcmmeta_version": 0.6,
    "global": {
      "const": {
        "AcquisitionMatrix": [
          0,
          96,
          96,
          0
        ],
        "Allergies": "No Known Allergies",
        "AngioFlag": "N",
        "BitsAllocated": 16,
        "BitsStored": 12,
        "BodyPartExamined": "HEAD",
        "Columns": 768,
        "EchoNumbers": 1,
        "EchoTime": 25.0,
        "EchoTrainLength": 1,
        "FlipAngle": 50.0,
        "HighBit": 11,
        "ImageOrientationPatient": [
          0.99999157803662,
          0.00067011969073,
          0.00404904870684,
          2.110094e-10,
          0.98657984636313,
          -0.1632795356133
        ],
        "ImagePositionPatient": [
          -767.761392775,
          -789.11337897392,
          103.87735661079
        ],
        "ImageType": [
          "ORIGINAL",
          "PRIMARY",
          "M",
          "ND",
          "ECHO_00",
          "MOSAIC"
        ],
        "ImagedNucleus": "1H",
        "ImagingFrequency": 297.204827,
        "InPlanePhaseEncodingDirection": "ROW",
        "LargestImagePixelValue": 4095,
        "MRAcquisitionType": "2D",
        "MagneticFieldStrength": 6.98,
        "Manufacturer": "SIEMENS",
        "ManufacturerModelName": "Investigational_Device_7T",
        "Modality": "MR",
        "NumberOfAverages": 1.0,
        "NumberOfPhaseEncodingSteps": 94,
        "PercentPhaseFieldOfView": 100.0,
        "PercentSampling": 100.0,
        "PerformedProcedureStepStartTime": "181540.759000",
        "PhotometricInterpretation": "MONOCHROME2",
        "PixelBandwidth": 2003.0,
        "PixelRepresentation": 0,
        "PixelSpacing": [
          2.0,
          2.0
        ],
        "PositionReferenceIndicator": "",
        "ProcedureCodeSequence": [
          {
            "CodeMeaning": "MRI Procedure Limited",
            "CodeValue": "MI01491",
            "CodingSchemeDesignator": "USA Standard",
            "ContextIdentifier": "4000107252"
          }
        ],
        "ProtocolName": "NIH_EPI_2.0iso_TR2_Run01",
        "ReferencedStudySequence": [
          {
            "ReferencedSOPClassUID": "1.2.840.10008.3.1.2.3.1",
            "ReferencedSOPInstanceUID": "1.2.840.113564.9.1.2723958737.61.2.5000073014"
          }
        ],
        "RepetitionTime": 2000.0,
        "RequestedProcedureCodeSequence": [
          {
            "CodeMeaning": "MRI Procedure Limited",
            "CodeValue": "MI01491",
            "CodingSchemeDesignator": "USA Standard",
            "ContextIdentifier": "4000107252"
          }
        ],
        "RequestingService": "MHED",
        "Rows": 768,
        "SAR": 0.08569017315284,
        "SamplesPerPixel": 1,
        "ScanningSequence": "EP",
        "SequenceName": "epfid2d1_96",
        "SequenceVariant": "SK",
        "SeriesDescription": "NIH_EPI_2.0iso_TR2_Run01",
        "SeriesNumber": 6,
        "SliceLocation": -23.21154749564,
        "SliceThickness": 2.0,
        "SmallestImagePixelValue": 0,
        "SoftwareVersions": "syngo MR B17",
        "SpacingBetweenSlices": 1.9999999799801,
        "TransmitCoilName": "32Ch_Head_7T",
        "VariableFlipAngleFlag": "N",
        "WindowCenterWidthExplanation": "Algo1",
        "dBdt": 0.0
      },
      "slices": {}
    },
    "modality": "bold",
    "run_id": 3,
    "session_id": "01",
    "subject_id": "002",
    "task_id": "FullFovNoAttentionTask",
    "time": {
      "samples": {
        "AcquisitionNumber": [
          1,
          2,
          3,
          4,
          5,
          6,
          7,
          8,
          9,
          10,
          11,
          12,
          13,
          14,
          15,
          16,
          17,
          18,
          19,
          20,
          21,
          22,
          23,
          24,
          25,
          26,
          27,
          28,
          29,
          30,
          31,
          32,
          33,
          34,
          35,
          36,
          37,
          38,
          39,
          40,
          41,
          42,
          43,
          44,
          45,
          46,
          47,
          48,
          49,
          50,
          51,
          52,
          53,
          54,
          55,
          56,
          57,
          58,
          59,
          60,
          61,
          62,
          63,
          64,
          65,
          66,
          67,
          68,
          69,
          70,
          71,
          72,
          73,
          74,
          75,
          76,
          77,
          78,
          79,
          80,
          81,
          82,
          83,
          84,
          85,
          86,
          87,
          88,
          89,
          90,
          91,
          92,
          93,
          94,
          95,
          96,
          97,
          98,
          99,
          100,
          101,
          102,
          103,
          104,
          105,
          106,
          107,
          108,
          109,
          110,
          111,
          112,
          113,
          114,
          115,
          116,
          117,
          118,
          119,
          120,
          121,
          122,
          123,
          124,
          125,
          126,
          127,
          128,
          129,
          130,
          131,
          132,
          133,
          134,
          135,
          136,
          137,
          138,
          139,
          140,
          141,
          142,
          143,
          144,
          145,
          146,
          147,
          148,
          149,
          150,
          151,
          152,
          153,
          154,
          155,
          156,
          157,
          158,
          159,
          160,
          161,
          162,
          163,
          164
        ],
        "AcquisitionTime": [
          "183819.130000",
          "183823.147500",
          "183825.155000",
          "183827.162500",
          "183829.170000",
          "183831.180000",
          "183833.187500",
          "183835.195000",
          "183837.202500",
          "183839.210000",
          "183841.220000",
          "183843.227500",
          "183845.235000",
          "183847.242500",
          "183849.252500",
          "183851.260000",
          "183853.267500",
          "183855.275000",
          "183857.282500",
          "183859.292500",
          "183901.300000",
          "183903.307500",
          "183905.315000",
          "183907.322500",
          "183909.332500",
          "183911.340000",
          "183913.347500",
          "183915.355000",
          "183917.362500",
          "183919.372500",
          "183921.380000",
          "183923.387500",
          "183925.395000",
          "183927.405000",
          "183929.412500",
          "183931.420000",
          "183933.427500",
          "183935.435000",
          "183937.445000",
          "183939.452500",
          "183941.460000",
          "183943.467500",
          "183945.475000",
          "183947.485000",
          "183949.492500",
          "183951.500000",
          "183953.507500",
          "183955.517500",
          "183957.525000",
          "183959.532500",
          "184001.540000",
          "184003.547500",
          "184005.557500",
          "184007.565000",
          "184009.572500",
          "184011.580000",
          "184013.587500",
          "184015.597500",
          "184017.605000",
          "184019.612500",
          "184021.620000",
          "184023.630000",
          "184025.637500",
          "184027.645000",
          "184029.652500",
          "184031.660000",
          "184033.670000",
          "184035.677500",
          "184037.685000",
          "184039.692500",
          "184041.700000",
          "184043.710000",
          "184045.717500",
          "184047.725000",
          "184049.732500",
          "184051.740000",
          "184053.750000",
          "184055.757500",
          "184057.765000",
          "184059.772500",
          "184101.782500",
          "184103.790000",
          "184105.797500",
          "184107.805000",
          "184109.812500",
          "184111.822500",
          "184113.830000",
          "184115.837500",
          "184117.845000",
          "184119.852500",
          "184121.862500",
          "184123.870000",
          "184125.877500",
          "184127.885000",
          "184129.895000",
          "184131.902500",
          "184133.910000",
          "184135.917500",
          "184137.925000",
          "184139.935000",
          "184141.942500",
          "184143.950000",
          "184145.957500",
          "184147.965000",
          "184149.975000",
          "184151.982500",
          "184153.990000",
          "184155.997500",
          "184158.007500",
          "184200.015000",
          "184202.022500",
          "184204.030000",
          "184206.037500",
          "184208.047500",
          "184210.055000",
          "184212.062500",
          "184214.070000",
          "184216.077500",
          "184218.087500",
          "184220.095000",
          "184222.102500",
          "184224.110000",
          "184226.120000",
          "184228.127500",
          "184230.135000",
          "184232.142500",
          "184234.150000",
          "184236.160000",
          "184238.167500",
          "184240.175000",
          "184242.182500",
          "184244.190000",
          "184246.200000",
          "184248.207500",
          "184250.215000",
          "184252.222500",
          "184254.230000",
          "184256.240000",
          "184258.247500",
          "184300.255000",
          "184302.262500",
          "184304.272500",
          "184306.280000",
          "184308.287500",
          "184310.295000",
          "184312.302500",
          "184314.312500",
          "184316.320000",
          "184318.327500",
          "184320.335000",
          "184322.342500",
          "184324.352500",
          "184326.360000",
          "184328.367500",
          "184330.375000",
          "184332.385000",
          "184334.392500",
          "184336.400000",
          "184338.407500",
          "184340.415000",
          "184342.425000",
          "184344.432500",
          "184346.440000",
          "184348.447500"
        ],
        "ContentTime": [
          "183905.884000",
          "183905.884000",
          "183905.884000",
          "183905.884000",
          "183905.899000",
          "183905.899000",
          "183905.899000",
          "183905.899000",
          "183905.899000",
          "183905.915000",
          "183905.915000",
          "183905.915000",
          "183905.915000",
          "183905.915000",
          "183905.915000",
          "183905.931000",
          "183905.931000",
          "183905.931000",
          "183905.931000",
          "183905.931000",
          "183905.946000",
          "183905.946000",
          "183945.868000",
          "183945.868000",
          "183945.868000",
          "183945.884000",
          "183945.884000",
          "183945.884000",
          "183945.899000",
          "183945.899000",
          "183945.899000",
          "183945.899000",
          "183945.899000",
          "183945.899000",
          "183945.915000",
          "183945.915000",
          "183945.915000",
          "183945.915000",
          "183945.915000",
          "183945.915000",
          "183945.931000",
          "183945.931000",
          "184005.868000",
          "184005.868000",
          "184005.868000",
          "184005.868000",
          "184005.868000",
          "184005.884000",
          "184005.884000",
          "184005.884000",
          "184005.884000",
          "184005.884000",
          "184045.868000",
          "184045.868000",
          "184045.868000",
          "184045.868000",
          "184045.884000",
          "184045.884000",
          "184045.884000",
          "184045.884000",
          "184045.884000",
          "184045.884000",
          "184045.884000",
          "184045.899000",
          "184045.899000",
          "184045.899000",
          "184045.899000",
          "184045.915000",
          "184045.915000",
          "184045.915000",
          "184045.915000",
          "184045.915000",
          "184125.868000",
          "184125.868000",
          "184125.868000",
          "184125.868000",
          "184125.868000",
          "184125.884000",
          "184125.884000",
          "184125.884000",
          "184125.884000",
          "184125.899000",
          "184125.899000",
          "184125.899000",
          "184125.899000",
          "184125.899000",
          "184125.899000",
          "184125.899000",
          "184125.915000",
          "184125.915000",
          "184125.915000",
          "184125.915000",
          "184205.868000",
          "184205.868000",
          "184205.868000",
          "184205.868000",
          "184205.868000",
          "184205.884000",
          "184205.884000",
          "184205.884000",
          "184205.884000",
          "184205.884000",
          "184205.884000",
          "184205.884000",
          "184205.899000",
          "184205.899000",
          "184205.899000",
          "184205.899000",
          "184205.899000",
          "184205.899000",
          "184205.899000",
          "184205.915000",
          "184245.868000",
          "184245.868000",
          "184245.868000",
          "184245.868000",
          "184245.884000",
          "184245.884000",
          "184245.884000",
          "184245.884000",
          "184245.884000",
          "184245.884000",
          "184245.899000",
          "184245.899000",
          "184245.899000",
          "184245.899000",
          "184245.899000",
          "184245.915000",
          "184245.915000",
          "184245.915000",
          "184245.915000",
          "184245.915000",
          "184325.868000",
          "184325.868000",
          "184325.868000",
          "184325.868000",
          "184325.868000",
          "184325.884000",
          "184325.884000",
          "184325.884000",
          "184325.884000",
          "184325.884000",
          "184325.884000",
          "184325.884000",
          "184325.899000",
          "184325.899000",
          "184325.899000",
          "184325.899000",
          "184325.899000",
          "184325.899000",
          "184325.915000",
          "184325.915000",
          "184349.399000",
          "184349.415000",
          "184349.415000",
          "184349.415000",
          "184349.415000",
          "184349.415000",
          "184349.415000",
          "184349.431000",
          "184349.431000",
          "184349.431000",
          "184349.431000",
          "184349.431000"
        ],
        "InstanceCreationTime": [
          "183905.884000",
          "183905.884000",
          "183905.884000",
          "183905.884000",
          "183905.899000",
          "183905.899000",
          "183905.899000",
          "183905.899000",
          "183905.899000",
          "183905.915000",
          "183905.915000",
          "183905.915000",
          "183905.915000",
          "183905.915000",
          "183905.915000",
          "183905.931000",
          "183905.931000",
          "183905.931000",
          "183905.931000",
          "183905.931000",
          "183905.946000",
          "183905.946000",
          "183945.868000",
          "183945.868000",
          "183945.868000",
          "183945.884000",
          "183945.884000",
          "183945.884000",
          "183945.899000",
          "183945.899000",
          "183945.899000",
          "183945.899000",
          "183945.899000",
          "183945.899000",
          "183945.915000",
          "183945.915000",
          "183945.915000",
          "183945.915000",
          "183945.915000",
          "183945.915000",
          "183945.931000",
          "183945.931000",
          "184005.868000",
          "184005.868000",
          "184005.868000",
          "184005.868000",
          "184005.868000",
          "184005.884000",
          "184005.884000",
          "184005.884000",
          "184005.884000",
          "184005.884000",
          "184045.868000",
          "184045.868000",
          "184045.868000",
          "184045.868000",
          "184045.884000",
          "184045.884000",
          "184045.884000",
          "184045.884000",
          "184045.884000",
          "184045.884000",
          "184045.884000",
          "184045.899000",
          "184045.899000",
          "184045.899000",
          "184045.899000",
          "184045.915000",
          "184045.915000",
          "184045.915000",
          "184045.915000",
          "184045.915000",
          "184125.868000",
          "184125.868000",
          "184125.868000",
          "184125.868000",
          "184125.868000",
          "184125.884000",
          "184125.884000",
          "184125.884000",
          "184125.884000",
          "184125.899000",
          "184125.899000",
          "184125.899000",
          "184125.899000",
          "184125.899000",
          "184125.899000",
          "184125.899000",
          "184125.915000",
          "184125.915000",
          "184125.915000",
          "184125.915000",
          "184205.868000",
          "184205.868000",
          "184205.868000",
          "184205.868000",
          "184205.868000",
          "184205.884000",
          "184205.884000",
          "184205.884000",
          "184205.884000",
          "184205.884000",
          "184205.884000",
          "184205.884000",
          "184205.899000",
          "184205.899000",
          "184205.899000",
          "184205.899000",
          "184205.899000",
          "184205.899000",
          "184205.899000",
          "184205.915000",
          "184245.868000",
          "184245.868000",
          "184245.868000",
          "184245.868000",
          "184245.884000",
          "184245.884000",
          "184245.884000",
          "184245.884000",
          "184245.884000",
          "184245.884000",
          "184245.899000",
          "184245.899000",
          "184245.899000",
          "184245.899000",
          "184245.899000",
          "184245.915000",
          "184245.915000",
          "184245.915000",
          "184245.915000",
          "184245.915000",
          "184325.868000",
          "184325.868000",
          "184325.868000",
          "184325.868000",
          "184325.868000",
          "184325.884000",
          "184325.884000",
          "184325.884000",
          "184325.884000",
          "184325.884000",
          "184325.884000",
          "184325.884000",
          "184325.899000",
          "184325.899000",
          "184325.899000",
          "184325.899000",
          "184325.899000",
          "184325.899000",
          "184325.915000",
          "184325.915000",
          "184349.399000",
          "184349.415000",
          "184349.415000",
          "184349.415000",
          "184349.415000",
          "184349.415000",
          "184349.415000",
          "184349.431000",
          "184349.431000",
          "184349.431000",
          "184349.431000",
          "184349.431000"
        ],
        "InstanceNumber": [
          1,
          2,
          3,
          4,
          5,
          6,
          7,
          8,
          9,
          10,
          11,
          12,
          13,
          14,
          15,
          16,
          17,
          18,
          19,
          20,
          21,
          22,
          23,
          24,
          25,
          26,
          27,
          28,
          29,
          30,
          31,
          32,
          33,
          34,
          35,
          36,
          37,
          38,
          39,
          40,
          41,
          42,
          43,
          44,
          45,
          46,
          47,
          48,
          49,
          50,
          51,
          52,
          53,
          54,
          55,
          56,
          57,
          58,
          59,
          60,
          61,
          62,
          63,
          64,
          65,
          66,
          67,
          68,
          69,
          70,
          71,
          72,
          73,
          74,
          75,
          76,
          77,
          78,
          79,
          80,
          81,
          82,
          83,
          84,
          85,
          86,
          87,
          88,
          89,
          90,
          91,
          92,
          93,
          94,
          95,
          96,
          97,
          98,
          99,
          100,
          101,
          102,
          103,
          104,
          105,
          106,
          107,
          108,
          109,
          110,
          111,
          112,
          113,
          114,
          115,
          116,
          117,
          118,
          119,
          120,
          121,
          122,
          123,
          124,
          125,
          126,
          127,
          128,
          129,
          130,
          131,
          132,
          133,
          134,
          135,
          136,
          137,
          138,
          139,
          140,
          141,
          142,
          143,
          144,
          145,
          146,
          147,
          148,
          149,
          150,
          151,
          152,
          153,
          154,
          155,
          156,
          157,
          158,
          159,
          160,
          161,
          162,
          163,
          164
        ],
        "WindowCenter": [
          1071.0,
          1072.0,
          1072.0,
          1072.0,
          1072.0,
          1072.0,
          1070.0,
          1073.0,
          1073.0,
          1072.0,
          1071.0,
          1069.0,
          1070.0,
          1073.0,
          1072.0,
          1071.0,
          1072.0,
          1072.0,
          1073.0,
          1071.0,
          1073.0,
          1071.0,
          1071.0,
          1071.0,
          1071.0,
          1074.0,
          1071.0,
          1071.0,
          1070.0,
          1072.0,
          1073.0,
          1071.0,
          1070.0,
          1069.0,
          1070.0,
          1070.0,
          1072.0,
          1073.0,
          1072.0,
          1071.0,
          1070.0,
          1071.0,
          1072.0,
          1071.0,
          1073.0,
          1071.0,
          1071.0,
          1070.0,
          1072.0,
          1073.0,
          1071.0,
          1069.0,
          1071.0,
          1072.0,
          1071.0,
          1069.0,
          1071.0,
          1069.0,
          1073.0,
          1072.0,
          1072.0,
          1071.0,
          1072.0,
          1074.0,
          1074.0,
          1073.0,
          1072.0,
          1071.0,
          1072.0,
          1071.0,
          1071.0,
          1072.0,
          1072.0,
          1074.0,
          1074.0,
          1072.0,
          1070.0,
          1073.0,
          1074.0,
          1073.0,
          1070.0,
          1068.0,
          1070.0,
          1073.0,
          1071.0,
          1071.0,
          1070.0,
          1070.0,
          1069.0,
          1070.0,
          1070.0,
          1072.0,
          1071.0,
          1070.0,
          1068.0,
          1071.0,
          1071.0,
          1069.0,
          1070.0,
          1073.0,
          1071.0,
          1070.0,
          1072.0,
          1074.0,
          1073.0,
          1071.0,
          1071.0,
          1072.0,
          1074.0,
          1073.0,
          1071.0,
          1072.0,
          1071.0,
          1070.0,
          1070.0,
          1071.0,
          1071.0,
          1070.0,
          1070.0,
          1070.0,
          1071.0,
          1074.0,
          1073.0,
          1069.0,
          1070.0,
          1071.0,
          1074.0,
          1071.0,
          1070.0,
          1070.0,
          1069.0,
          1070.0,
          1069.0,
          1071.0,
          1069.0,
          1071.0,
          1070.0,
          1070.0,
          1072.0,
          1071.0,
          1070.0,
          1069.0,
          1072.0,
          1071.0,
          1071.0,
          1069.0,
          1072.0,
          1073.0,
          1071.0,
          1069.0,
          1069.0,
          1068.0,
          1071.0,
          1070.0,
          1071.0,
          1071.0,
          1071.0,
          1071.0,
          1071.0,
          1071.0,
          1072.0,
          1070.0,
          1071.0,
          1071.0
        ],
        "WindowWidth": [
          2892.0,
          2888.0,
          2894.0,
          2890.0,
          2892.0,
          2889.0,
          2883.0,
          2898.0,
          2897.0,
          2889.0,
          2889.0,
          2880.0,
          2884.0,
          2889.0,
          2884.0,
          2891.0,
          2887.0,
          2898.0,
          2894.0,
          2892.0,
          2894.0,
          2884.0,
          2889.0,
          2882.0,
          2894.0,
          2892.0,
          2885.0,
          2886.0,
          2880.0,
          2895.0,
          2892.0,
          2887.0,
          2883.0,
          2882.0,
          2885.0,
          2883.0,
          2895.0,
          2894.0,
          2885.0,
          2892.0,
          2884.0,
          2894.0,
          2887.0,
          2892.0,
          2893.0,
          2891.0,
          2887.0,
          2884.0,
          2896.0,
          2897.0,
          2886.0,
          2879.0,
          2891.0,
          2894.0,
          2887.0,
          2882.0,
          2886.0,
          2883.0,
          2893.0,
          2889.0,
          2886.0,
          2882.0,
          2892.0,
          2893.0,
          2895.0,
          2889.0,
          2890.0,
          2886.0,
          2894.0,
          2883.0,
          2889.0,
          2886.0,
          2889.0,
          2894.0,
          2895.0,
          2887.0,
          2884.0,
          2897.0,
          2899.0,
          2890.0,
          2879.0,
          2876.0,
