{
  "aor": 0.0029673170731707318,
  "aqi": 0.00531128012195122,
  "bids_meta": {
    "AcquisitionMatrixPE": 96,
    "AcquisitionNumber": 1,
    "AcquisitionTime": "18:37:24.567500",
    "BandwidthPerPixelPhaseEncode": 52.083,
    "BaseResolution": 96,
    "BodyPartExamined": "HEAD",
    "ConversionSoftware": "dcm2niix",
    "ConversionSoftwareVersion": "v1.0.20180622 GCC6.3.0",
    "DerivedVendorReportedEchoSpacing": 0.000600004,
    "DeviceSerialNumber": "18926",
    "DwellTime": 2.6e-06,
    "EchoTime": 0.025,
    "EffectiveEchoSpacing": 0.000200001,
    "FlipAngle": 50,
    "ImageOrientationPatientDICOM": [
      0.999992,
      0.00100659,
      0.00397877,
      1.98401e-10,
      0.969457,
      -0.245262
    ],
    "ImageType": [
      "ORIGINAL",
      "PRIMARY",
      "M",
      "ND",
      "ECHO",
      "00",
      "MOSAIC"
    ],
    "InPlanePhaseEncodingDirectionDICOM": "ROW",
    "InstitutionName": "NIMH",
    "InstitutionalDepartmentName": "Department",
    "MRAcquisitionType": "2D",
    "MagneticFieldStrength": 6.98,
    "Manufacturer": "Siemens",
    "ManufacturersModelName": "Investigational_Device_7T",
    "Modality": "MR",
    "ParallelReductionFactorInPlane": 3,
    "PartialFourier": 1,
    "PatientPosition": "HFS",
    "PercentPhaseFOV": 100,
    "PhaseEncodingDirection": "i",
    "PhaseEncodingSteps": 94,
    "PhaseResolution": 1,
    "PixelBandwidth": 2003,
    "ProcedureStepDescription": "MRI_Procedure_Limited",
    "ProtocolName": "NIH_EPI_2.0iso_TR2_Run08",
    "PulseSequenceDetails": "%CustomerSeq%_inati_nih_epi",
    "ReceiveCoilName": "32Ch_Head_7T",
    "ReconMatrixPE": 96,
    "RepetitionTime": 2,
    "SAR": 0.0804994,
    "ScanningSequence": "EP",
    "SequenceName": "epfid2d1_96",
    "SequenceVariant": "SK",
    "SeriesDescription": "NIH_EPI_2.0iso_TR2_Run08",
    "SeriesNumber": 13,
    "ShimSetting": [
      -39,
      169,
      894,
      1298,
      -62,
      494,
      -26,
      -417
    ],
    "SliceThickness": 2,
    "SliceTiming": [
      1.005,
      0,
      1.0425,
      0.0375,
      1.0775,
      0.075,
      1.115,
      0.1125,
      1.1525,
      0.15,
      1.19,
      0.1875,
      1.2275,
      0.2225,
      1.265,
      0.26,
      1.3025,
      0.2975,
      1.34,
      0.335,
      1.375,
      0.3725,
      1.4125,
      0.41,
      1.45,
      0.4475,
      1.4875,
      0.485,
      1.525,
      0.52,
      1.5625,
      0.5575,
      1.6,
      0.595,
      1.6375,
      0.6325,
      1.6725,
      0.67,
      1.71,
      0.7075,
      1.7475,
      0.745,
      1.785,
      0.7825,
      1.8225,
      0.8175,
      1.86,
      0.855,
      1.8975,
      0.8925,
      1.935,
      0.93,
      1.97,
      0.9675
    ],
    "SoftwareVersions": "syngo_MR_B17",
    "SpacingBetweenSlices": 2,
    "StationName": "FMRIFD7T",
    "TaskName": "HalfFovNoTask",
    "TotalReadoutTime": 0.0190001,
    "TxRefAmp": 322,
    "dataset": "ds001555",
    "dcmmeta_affine": [
      [
        -1.9999831914901733,
        3.9680239649619864e-10,
        0.008208253420889378,
        95.76705169677734
      ],
      [
        -0.0020131703931838274,
        1.9389138221740723,
        -0.4905194342136383,
        -52.40839767456055
      ],
      [
        0.007957547903060913,
        0.4905235469341278,
        1.9388974905014038,
        -48.362403869628906
      ],
      [
        0.0,
        0.0,
        0.0,
        1.0
      ]
    ],
    "dcmmeta_reorient_transform": [
      [
        0.0,
        -1.0,
        0.0,
        95.0
      ],
      [
        1.0,
        0.0,
        0.0,
        0.0
      ],
      [
        0.0,
        0.0,
        1.0,
        0.0
      ],
      [
        0.0,
        0.0,
        0.0,
        1.0
      ]
    ],
    "dcmmeta_shape": [
      96,
      96,
      54,
      164
    ],
    "dcmmeta_slice_dim": 2,
    "dcmmeta_version": 0.6,
    "global": {
      "const": {
        "AcquisitionMatrix": [
          0,
          96,
          96,
          0
        ],
        "Allergies": "No Known Allergies",
        "AngioFlag": "N",
        "BitsAllocated": 16,
        "BitsStored": 12,
        "BodyPartExamined": "HEAD",
        "Columns": 768,
        "EchoNumbers": 1,
        "EchoTime": 25.0,
        "EchoTrainLength": 1,
        "FlipAngle": 50.0,
        "HighBit": 11,
        "ImageOrientationPatient": [
          0.99999157803706,
          0.00100658515696,
          0.00397877384048,
          1.984012e-10,
          0.96945689128577,
          -0.2452617702344
        ],
        "ImagePositionPatient": [
          -767.76139276565,
          -783.93986653399,
          160.37950466745
        ],
        "ImageType": [
          "ORIGINAL",
          "PRIMARY",
          "M",
          "ND",
          "ECHO_00",
          "MOSAIC"
        ],
        "ImagedNucleus": "1H",
        "ImagingFrequency": 297.204985,
        "InPlanePhaseEncodingDirection": "ROW",
        "LargestImagePixelValue": 4095,
        "MRAcquisitionType": "2D",
        "MagneticFieldStrength": 6.98,
        "Manufacturer": "SIEMENS",
        "ManufacturerModelName": "Investigational_Device_7T",
        "Modality": "MR",
        "NumberOfAverages": 1.0,
        "NumberOfPhaseEncodingSteps": 94,
        "PercentPhaseFieldOfView": 100.0,
        "PercentSampling": 100.0,
        "PerformedProcedureStepStartTime": "172727.468000",
        "PhotometricInterpretation": "MONOCHROME2",
        "PixelBandwidth": 2003.0,
        "PixelRepresentation": 0,
        "PixelSpacing": [
          2.0,
          2.0
        ],
        "PositionReferenceIndicator": "",
        "ProcedureCodeSequence": [
          {
            "CodeMeaning": "MRI Procedure Limited",
            "CodeValue": "MI01491",
            "CodingSchemeDesignator": "USA Standard",
            "ContextIdentifier": "4000120229"
          }
        ],
        "ProtocolName": "NIH_EPI_2.0iso_TR2_Run08",
        "ReferencedStudySequence": [
          {
            "ReferencedSOPClassUID": "1.2.840.10008.3.1.2.3.1",
            "ReferencedSOPInstanceUID": "1.2.840.113564.9.1.2723958737.61.2.5000086040"
          }
        ],
        "RepetitionTime": 2000.0,
        "RequestedProcedureCodeSequence": [
          {
            "CodeMeaning": "MRI Procedure Limited",
            "CodeValue": "MI01491",
            "CodingSchemeDesignator": "USA Standard",
            "ContextIdentifier": "4000120229"
          }
        ],
        "RequestingService": "NIHM Molecular Imaging Branch",
        "Rows": 768,
        "SAR": 0.080499376312,
        "SamplesPerPixel": 1,
        "ScanningSequence": "EP",
        "SequenceName": "epfid2d1_96",
        "SequenceVariant": "SK",
        "SeriesDescription": "NIH_EPI_2.0iso_TR2_Run08",
        "SeriesNumber": 13,
        "SliceLocation": -33.63816362769,
        "SliceThickness": 2.0,
        "SmallestImagePixelValue": 0,
        "SoftwareVersions": "syngo MR B17",
        "SpacingBetweenSlices": 2.0000000574333,
        "TransmitCoilName": "32Ch_Head_7T",
        "VariableFlipAngleFlag": "N",
        "WindowCenterWidthExplanation": "Algo1",
        "dBdt": 0.0
      },
      "slices": {}
    },
    "modality": "bold",
    "run_id": 10,
    "session_id": "09",
    "subject_id": "001",
    "task_id": "HalfFovNoTask",
    "time": {
      "samples": {
        "AcquisitionNumber": [
          1,
          2,
          3,
          4,
          5,
          6,
          7,
          8,
          9,
          10,
          11,
          12,
          13,
          14,
          15,
          16,
          17,
          18,
          19,
          20,
          21,
          22,
          23,
          24,
          25,
          26,
          27,
          28,
          29,
          30,
          31,
          32,
          33,
          34,
          35,
          36,
          37,
          38,
          39,
          40,
          41,
          42,
          43,
          44,
          45,
          46,
          47,
          48,
          49,
          50,
          51,
          52,
          53,
          54,
          55,
          56,
          57,
          58,
          59,
          60,
          61,
          62,
          63,
          64,
          65,
          66,
          67,
          68,
          69,
          70,
          71,
          72,
          73,
          74,
          75,
          76,
          77,
          78,
          79,
          80,
          81,
          82,
          83,
          84,
          85,
          86,
          87,
          88,
          89,
          90,
          91,
          92,
          93,
          94,
          95,
          96,
          97,
          98,
          99,
          100,
          101,
          102,
          103,
          104,
          105,
          106,
          107,
          108,
          109,
          110,
          111,
          112,
          113,
          114,
          115,
          116,
          117,
          118,
          119,
          120,
          121,
          122,
          123,
          124,
          125,
          126,
          127,
          128,
          129,
          130,
          131,
          132,
          133,
          134,
          135,
          136,
          137,
          138,
          139,
          140,
          141,
          142,
          143,
          144,
          145,
          146,
          147,
          148,
          149,
          150,
          151,
          152,
          153,
          154,
          155,
          156,
          157,
          158,
          159,
          160,
          161,
          162,
          163,
          164
        ],
        "AcquisitionTime": [
          "183724.567500",
          "183728.582500",
          "183730.590000",
          "183732.600000",
          "183734.607500",
          "183736.615000",
          "183738.622500",
          "183740.630000",
          "183742.640000",
          "183744.647500",
          "183746.655000",
          "183748.662500",
          "183750.670000",
          "183752.680000",
          "183754.687500",
          "183756.695000",
          "183758.702500",
          "183800.712500",
          "183802.720000",
          "183804.727500",
          "183806.735000",
          "183808.742500",
          "183810.752500",
          "183812.760000",
          "183814.767500",
          "183816.775000",
          "183818.782500",
          "183820.792500",
          "183822.800000",
          "183824.807500",
          "183826.815000",
          "183828.825000",
          "183830.832500",
          "183832.840000",
          "183834.847500",
          "183836.855000",
          "183838.865000",
          "183840.872500",
          "183842.880000",
          "183844.887500",
          "183846.895000",
          "183848.905000",
          "183850.912500",
          "183852.920000",
          "183854.927500",
          "183856.937500",
          "183858.945000",
          "183900.952500",
          "183902.960000",
          "183904.967500",
          "183906.977500",
          "183908.985000",
          "183910.992500",
          "183913.000000",
          "183915.007500",
          "183917.017500",
          "183919.025000",
          "183921.032500",
          "183923.040000",
          "183925.050000",
          "183927.057500",
          "183929.065000",
          "183931.072500",
          "183933.080000",
          "183935.090000",
          "183937.097500",
          "183939.105000",
          "183941.112500",
          "183943.120000",
          "183945.130000",
          "183947.137500",
          "183949.145000",
          "183951.152500",
          "183953.160000",
          "183955.170000",
          "183957.177500",
          "183959.185000",
          "184001.192500",
          "184003.202500",
          "184005.210000",
          "184007.217500",
          "184009.225000",
          "184011.232500",
          "184013.242500",
          "184015.250000",
          "184017.257500",
          "184019.265000",
          "184021.272500",
          "184023.282500",
          "184025.290000",
          "184027.297500",
          "184029.305000",
          "184031.315000",
          "184033.322500",
          "184035.330000",
          "184037.337500",
          "184039.345000",
          "184041.355000",
          "184043.362500",
          "184045.370000",
          "184047.377500",
          "184049.385000",
          "184051.395000",
          "184053.402500",
          "184055.410000",
          "184057.417500",
          "184059.427500",
          "184101.435000",
          "184103.442500",
          "184105.450000",
          "184107.457500",
          "184109.467500",
          "184111.475000",
          "184113.482500",
          "184115.490000",
          "184117.497500",
          "184119.507500",
          "184121.515000",
          "184123.522500",
          "184125.530000",
          "184127.537500",
          "184129.547500",
          "184131.555000",
          "184133.562500",
          "184135.570000",
          "184137.580000",
          "184139.587500",
          "184141.595000",
          "184143.602500",
          "184145.610000",
          "184147.620000",
          "184149.627500",
          "184151.635000",
          "184153.642500",
          "184155.650000",
          "184157.660000",
          "184159.667500",
          "184201.675000",
          "184203.682500",
          "184205.692500",
          "184207.700000",
          "184209.707500",
          "184211.715000",
          "184213.722500",
          "184215.732500",
          "184217.740000",
          "184219.747500",
          "184221.755000",
          "184223.762500",
          "184225.772500",
          "184227.780000",
          "184229.787500",
          "184231.795000",
          "184233.805000",
          "184235.812500",
          "184237.820000",
          "184239.827500",
          "184241.835000",
          "184243.845000",
          "184245.852500",
          "184247.860000",
          "184249.867500",
          "184251.875000",
          "184253.885000"
        ],
        "ContentTime": [
          "183810.203000",
          "183810.203000",
          "183810.218000",
          "183810.218000",
          "183810.218000",
          "183810.218000",
          "183810.218000",
          "183810.218000",
          "183810.234000",
          "183810.234000",
          "183810.234000",
          "183810.234000",
          "183810.234000",
          "183810.234000",
          "183810.250000",
          "183810.250000",
          "183810.250000",
          "183810.250000",
          "183810.250000",
          "183810.250000",
          "183810.250000",
          "183850.187000",
          "183850.187000",
          "183850.187000",
          "183850.203000",
          "183850.203000",
          "183850.203000",
          "183850.203000",
          "183850.203000",
          "183850.203000",
          "183850.218000",
          "183850.218000",
          "183850.218000",
          "183850.234000",
          "183850.234000",
          "183850.234000",
          "183850.234000",
          "183850.250000",
          "183850.250000",
          "183850.250000",
          "183850.250000",
          "183930.187000",
          "183930.187000",
          "183930.187000",
          "183930.203000",
          "183930.203000",
          "183930.203000",
          "183930.203000",
          "183930.218000",
          "183930.218000",
          "183930.218000",
          "183930.218000",
          "183930.218000",
          "183930.218000",
          "183930.312000",
          "183930.312000",
          "183930.312000",
          "183930.328000",
          "183930.328000",
          "183930.328000",
          "183930.328000",
          "184010.187000",
          "184010.187000",
          "184010.187000",
          "184010.203000",
          "184010.203000",
          "184010.203000",
          "184010.203000",
          "184010.218000",
          "184010.218000",
          "184010.218000",
          "184010.218000",
          "184010.218000",
          "184010.234000",
          "184010.234000",
          "184010.234000",
          "184010.234000",
          "184010.250000",
          "184010.250000",
          "184010.250000",
          "184010.250000",
          "184050.187000",
          "184050.203000",
          "184050.203000",
          "184050.203000",
          "184050.203000",
          "184050.203000",
          "184050.203000",
          "184050.218000",
          "184050.218000",
          "184050.218000",
          "184050.218000",
          "184050.218000",
          "184050.218000",
          "184050.234000",
          "184050.234000",
          "184050.234000",
          "184050.234000",
          "184050.234000",
          "184050.234000",
          "184050.250000",
          "184130.187000",
          "184130.187000",
          "184130.187000",
          "184130.203000",
          "184130.203000",
          "184130.203000",
          "184130.203000",
          "184130.203000",
          "184130.203000",
          "184130.203000",
          "184130.218000",
          "184130.218000",
          "184130.218000",
          "184130.234000",
          "184130.234000",
          "184130.234000",
          "184130.234000",
          "184130.234000",
          "184130.234000",
          "184130.234000",
          "184210.187000",
          "184210.203000",
          "184210.203000",
          "184210.203000",
          "184210.218000",
          "184210.218000",
          "184210.218000",
          "184210.218000",
          "184210.218000",
          "184210.234000",
          "184210.234000",
          "184210.234000",
          "184210.234000",
          "184210.234000",
          "184210.250000",
          "184210.250000",
          "184210.250000",
          "184210.250000",
          "184210.250000",
          "184210.265000",
          "184250.187000",
          "184250.187000",
          "184250.187000",
          "184250.203000",
          "184250.203000",
          "184250.203000",
          "184250.203000",
          "184250.203000",
          "184250.203000",
          "184250.218000",
          "184250.218000",
          "184250.218000",
          "184250.234000",
          "184250.234000",
          "184250.234000",
          "184250.234000",
          "184250.234000",
          "184250.234000",
          "184250.234000",
          "184250.250000",
          "184254.328000",
          "184254.328000",
          "184254.328000"
        ],
        "InstanceCreationTime": [
          "183810.203000",
          "183810.203000",
          "183810.218000",
          "183810.218000",
          "183810.218000",
          "183810.218000",
          "183810.218000",
          "183810.218000",
          "183810.234000",
          "183810.234000",
          "183810.234000",
          "183810.234000",
          "183810.234000",
          "183810.234000",
          "183810.250000",
          "183810.250000",
          "183810.250000",
          "183810.250000",
          "183810.250000",
          "183810.250000",
          "183810.250000",
          "183850.187000",
          "183850.187000",
          "183850.187000",
          "183850.203000",
          "183850.203000",
          "183850.203000",
          "183850.203000",
          "183850.203000",
          "183850.203000",
          "183850.218000",
          "183850.218000",
          "183850.218000",
          "183850.234000",
          "183850.234000",
          "183850.234000",
          "183850.234000",
          "183850.250000",
          "183850.250000",
          "183850.250000",
          "183850.250000",
          "183930.187000",
          "183930.187000",
          "183930.187000",
          "183930.203000",
          "183930.203000",
          "183930.203000",
          "183930.203000",
          "183930.218000",
          "183930.218000",
          "183930.218000",
          "183930.218000",
          "183930.218000",
          "183930.218000",
          "183930.312000",
          "183930.312000",
          "183930.312000",
          "183930.328000",
          "183930.328000",
          "183930.328000",
          "183930.328000",
          "184010.187000",
          "184010.187000",
          "184010.187000",
          "184010.203000",
          "184010.203000",
          "184010.203000",
          "184010.203000",
          "184010.218000",
          "184010.218000",
          "184010.218000",
          "184010.218000",
          "184010.218000",
          "184010.234000",
          "184010.234000",
          "184010.234000",
          "184010.234000",
          "184010.250000",
          "184010.250000",
          "184010.250000",
          "184010.250000",
          "184050.187000",
          "184050.203000",
          "184050.203000",
          "184050.203000",
          "184050.203000",
          "184050.203000",
          "184050.203000",
          "184050.218000",
          "184050.218000",
          "184050.218000",
          "184050.218000",
          "184050.218000",
          "184050.218000",
          "184050.234000",
          "184050.234000",
          "184050.234000",
          "184050.234000",
          "184050.234000",
          "184050.234000",
          "184050.250000",
          "184130.187000",
          "184130.187000",
          "184130.187000",
          "184130.203000",
          "184130.203000",
          "184130.203000",
          "184130.203000",
          "184130.203000",
          "184130.203000",
          "184130.203000",
          "184130.218000",
          "184130.218000",
          "184130.218000",
          "184130.234000",
          "184130.234000",
          "184130.234000",
          "184130.234000",
          "184130.234000",
          "184130.234000",
          "184130.234000",
          "184210.187000",
          "184210.203000",
          "184210.203000",
          "184210.203000",
          "184210.218000",
          "184210.218000",
          "184210.218000",
          "184210.218000",
          "184210.218000",
          "184210.234000",
          "184210.234000",
          "184210.234000",
          "184210.234000",
          "184210.234000",
          "184210.250000",
          "184210.250000",
          "184210.250000",
          "184210.250000",
          "184210.250000",
          "184210.265000",
          "184250.187000",
          "184250.187000",
          "184250.187000",
          "184250.203000",
          "184250.203000",
          "184250.203000",
          "184250.203000",
          "184250.203000",
          "184250.203000",
          "184250.218000",
          "184250.218000",
          "184250.218000",
          "184250.234000",
          "184250.234000",
          "184250.234000",
          "184250.234000",
          "184250.234000",
          "184250.234000",
          "184250.234000",
          "184250.250000",
          "184254.328000",
          "184254.328000",
          "184254.328000"
        ],
        "InstanceNumber": [
          1,
          2,
          3,
          4,
          5,
          6,
          7,
          8,
          9,
          10,
          11,
          12,
          13,
          14,
          15,
          16,
          17,
          18,
          19,
          20,
          21,
          22,
          23,
          24,
          25,
          26,
          27,
          28,
          29,
          30,
          31,
          32,
          33,
          34,
          35,
          36,
          37,
          38,
          39,
          40,
          41,
          42,
          43,
          44,
          45,
          46,
          47,
          48,
          49,
          50,
          51,
          52,
          53,
          54,
          55,
          56,
          57,
          58,
          59,
          60,
          61,
          62,
          63,
          64,
          65,
          66,
          67,
          68,
          69,
          70,
          71,
          72,
          73,
          74,
          75,
          76,
          77,
          78,
          79,
          80,
          81,
          82,
          83,
          84,
          85,
          86,
          87,
          88,
          89,
          90,
          91,
          92,
          93,
          94,
          95,
          96,
          97,
          98,
          99,
          100,
          101,
          102,
          103,
          104,
          105,
          106,
          107,
          108,
          109,
          110,
          111,
          112,
          113,
          114,
          115,
          116,
          117,
          118,
          119,
          120,
          121,
          122,
          123,
          124,
          125,
          126,
          127,
          128,
          129,
          130,
          131,
          132,
          133,
          134,
          135,
          136,
          137,
          138,
          139,
          140,
          141,
          142,
          143,
          144,
          145,
          146,
          147,
          148,
          149,
          150,
          151,
          152,
          153,
          154,
          155,
          156,
          157,
          158,
          159,
          160,
          161,
          162,
          163,
          164
        ],
        "WindowCenter": [
          1236.0,
          1235.0,
          1236.0,
          1238.0,
          1237.0,
          1237.0,
          1236.0,
          1236.0,
          1237.0,
          1235.0,
          1234.0,
          1233.0,
          1231.0,
          1231.0,
          1231.0,
          1234.0,
          1235.0,
          1233.0,
          1232.0,
          1232.0,
          1233.0,
          1234.0,
          1234.0,
          1235.0,
          1236.0,
          1236.0,
          1235.0,
          1234.0,
          1234.0,
          1236.0,
          1237.0,
          1236.0,
          1235.0,
          1233.0,
          1232.0,
          1232.0,
          1234.0,
          1237.0,
          1238.0,
          1235.0,
          1232.0,
          1232.0,
          1235.0,
          1238.0,
          1237.0,
          1235.0,
          1235.0,
          1235.0,
          1235.0,
          1233.0,
          1232.0,
          1234.0,
          1234.0,
          1235.0,
          1233.0,
          1234.0,
          1234.0,
          1235.0,
          1235.0,
          1235.0,
          1237.0,
          1238.0,
          1238.0,
          1237.0,
          1236.0,
          1236.0,
          1237.0,
          1236.0,
          1235.0,
          1236.0,
          1236.0,
          1234.0,
          1232.0,
          1233.0,
          1235.0,
          1234.0,
          1236.0,
          1236.0,
          1237.0,
          1236.0,
          1236.0,
          1236.0,
          1235.0,
          1237.0,
          1238.0,
          1236.0,
          1234.0,
          1234.0,
          1234.0,
          1236.0,
          1237.0,
          1237.0,
          1238.0,
          1237.0,
          1236.0,
          1238.0,
          1240.0,
          1237.0,
          1234.0,
          1235.0,
          1236.0,
          1238.0,
          1238.0,
          1237.0,
          1237.0,
          1238.0,
          1241.0,
          1242.0,
          1240.0,
          1238.0,
          1238.0,
          1238.0,
          1240.0,
          1238.0,
          1236.0,
          1236.0,
          1236.0,
          1236.0,
          1238.0,
          1237.0,
          1236.0,
          1236.0,
          1236.0,
          1239.0,
          1239.0,
          1238.0,
          1239.0,
          1240.0,
          1239.0,
          1239.0,
          1239.0,
          1240.0,
          1239.0,
          1237.0,
          1238.0,
          1239.0,
          1240.0,
          1238.0,
          1237.0,
          1235.0,
          1234.0,
          1236.0,
          1236.0,
          1235.0,
          1235.0,
          1237.0,
          1237.0,
          1237.0,
          1238.0,
          1237.0,
          1238.0,
          1239.0,
          1239.0,
          1239.0,
          1239.0,
          1239.0,
          1238.0,
          1237.0,
          1236.0,
          1236.0,
          1236.0,
          1237.0,
          1237.0,
          1240.0
        ],
        "WindowWidth": [
          2951.0,
          2946.0,
          2953.0,
          2956.0,
          2954.0,
          2952.0,
          2950.0,
          2953.0,
          2952.0,
          2949.0,
          2946.0,
          2942.0,
          2939.0,
          2939.0,
          2943.0,
          2950.0,
          2947.0,
          2942.0,
          2943.0,
          2944.0,
          2946.0,
          2946.0,
          2946.0,
          2951.0,
          2952.0,
          2949.0,
          2945.0,
          2945.0,
          2948.0,
          2952.0,
          2950.0,
          2949.0,
          2946.0,
          2942.0,
          2941.0,
          2939.0,
          2948.0,
          2953.0,
          2954.0,
          2944.0,
          2941.0,
          2942.0,
          2950.0,
          2954.0,
          2951.0,
          2948.0,
          2947.0,
          2945.0,
          2944.0,
          2940.0,
          2939.0,
          2942.0,
          2945.0,
          2945.0,
          2942.0,
          2944.0,
          2945.0,
          2946.0,
          2949.0,
          2950.0,
          2952.0,
          2956.0,
          2954.0,
          2952.0,
          2949.0,
          2952.0,
          2954.0,
          2951.0,
          2949.0,
          2949.0,
          2946.0,
          2942.0,
          2941.0,
          2947.0,
          2948.0,
          2945.0,
          2949.0,
          2951.0,
          2953.0,
          2949.0,
          2946.0,
          2948.0,
