{
  "aor": 0.002270060975609756,
  "aqi": 0.012398477317073171,
  "bids_meta": {
    "AcquisitionMatrixPE": 96,
    "AcquisitionNumber": 1,
    "AcquisitionTime": "13:30:53.350000",
    "BandwidthPerPixelPhaseEncode": 52.083,
    "BaseResolution": 96,
    "BodyPartExamined": "HEAD",
    "ConversionSoftware": "dcm2niix",
    "ConversionSoftwareVersion": "v1.0.20180622 GCC6.3.0",
    "DerivedVendorReportedEchoSpacing": 0.000600004,
    "DeviceSerialNumber": "18926",
    "DwellTime": 2.6e-06,
    "EchoTime": 0.025,
    "EffectiveEchoSpacing": 0.000200001,
    "FlipAngle": 50,
    "ImageOrientationPatientDICOM": [
      0.999992,
      2.12957e-05,
      0.00410407,
      2.05498e-10,
      0.999987,
      -0.00518891
    ],
    "ImageType": [
      "ORIGINAL",
      "PRIMARY",
      "M",
      "ND",
      "ECHO",
      "00",
      "MOSAIC"
    ],
    "InPlanePhaseEncodingDirectionDICOM": "ROW",
    "InstitutionName": "NIMH",
    "InstitutionalDepartmentName": "Department",
    "MRAcquisitionType": "2D",
    "MagneticFieldStrength": 6.98,
    "Manufacturer": "Siemens",
    "ManufacturersModelName": "Investigational_Device_7T",
    "Modality": "MR",
    "ParallelReductionFactorInPlane": 3,
    "PartialFourier": 1,
    "PatientPosition": "HFS",
    "PercentPhaseFOV": 100,
    "PhaseEncodingDirection": "i",
    "PhaseEncodingSteps": 94,
    "PhaseResolution": 1,
    "PixelBandwidth": 2003,
    "ProcedureStepDescription": "MRI_Procedure_Limited",
    "ProtocolName": "NIH_EPI_2.0iso_TR2_Run01.bis",
    "PulseSequenceDetails": "%CustomerSeq%_inati_nih_epi",
    "ReceiveCoilName": "32Ch_Head_7T",
    "ReconMatrixPE": 96,
    "RepetitionTime": 2,
    "SAR": 0.090368,
    "ScanningSequence": "EP",
    "SequenceName": "epfid2d1_96",
    "SequenceVariant": "SK",
    "SeriesDescription": "NIH_EPI_2.0iso_TR2_Run01.bis",
    "SeriesNumber": 6,
    "ShimSetting": [
      -74,
      143,
      1102,
      2258,
      -61,
      565,
      252,
      -378
    ],
    "SliceThickness": 2,
    "SliceTiming": [
      1.005,
      0,
      1.04,
      0.0375,
      1.0775,
      0.075,
      1.115,
      0.1125,
      1.1525,
      0.15,
      1.19,
      0.185,
      1.2275,
      0.2225,
      1.265,
      0.26,
      1.3025,
      0.2975,
      1.3375,
      0.335,
      1.375,
      0.3725,
      1.4125,
      0.41,
      1.45,
      0.445,
      1.4875,
      0.4825,
      1.525,
      0.52,
      1.5625,
      0.5575,
      1.5975,
      0.595,
      1.635,
      0.6325,
      1.6725,
      0.67,
      1.71,
      0.7075,
      1.7475,
      0.7425,
      1.785,
      0.78,
      1.8225,
      0.8175,
      1.86,
      0.855,
      1.895,
      0.8925,
      1.9325,
      0.93,
      1.97,
      0.9675
    ],
    "SoftwareVersions": "syngo_MR_B17",
    "SpacingBetweenSlices": 2,
    "StationName": "FMRIFD7T",
    "TaskName": "FullFovAttentionTask",
    "TotalReadoutTime": 0.0190001,
    "TxRefAmp": 277,
    "dataset": "ds001555",
    "dcmmeta_affine": [
      [
        -1.9999831914901733,
        4.1099659786603127e-10,
        0.008208253420889378,
        95.76705169677734
      ],
      [
        -4.259147317497991e-05,
        1.9999730587005615,
        -0.010377731174230576,
        -70.11437225341797
      ],
      [
        0.008208143524825573,
        0.01037781871855259,
        1.9999561309814453,
        -37.54548645019531
      ],
      [
        0.0,
        0.0,
        0.0,
        1.0
      ]
    ],
    "dcmmeta_reorient_transform": [
      [
        0.0,
        -1.0,
        0.0,
        95.0
      ],
      [
        1.0,
        0.0,
        0.0,
        0.0
      ],
      [
        0.0,
        0.0,
        1.0,
        0.0
      ],
      [
        0.0,
        0.0,
        0.0,
        1.0
      ]
    ],
    "dcmmeta_shape": [
      96,
      96,
      54,
      164
    ],
    "dcmmeta_slice_dim": 2,
    "dcmmeta_version": 0.6,
    "global": {
      "const": {
        "AcquisitionMatrix": [
          0,
          96,
          96,
          0
        ],
        "Allergies": "No Known Allergies",
        "AngioFlag": "N",
        "BitsAllocated": 16,
        "BitsStored": 12,
        "BodyPartExamined": "HEAD",
        "Columns": 768,
        "EchoNumbers": 1,
        "EchoTime": 25.0,
        "EchoTrainLength": 1,
        "FlipAngle": 50.0,
        "HighBit": 11,
        "ImageOrientationPatient": [
          0.9999915780361,
          2.129573671e-05,
          0.00410407156009,
          2.054983e-10,
          0.99998653751898,
          -0.0051889094043
        ],
        "ImagePositionPatient": [
          -767.76139277037,
          -791.88833443707,
          -35.830582786369
        ],
        "ImageType": [
          "ORIGINAL",
          "PRIMARY",
          "M",
          "ND",
          "ECHO_00",
          "MOSAIC"
        ],
        "ImagedNucleus": "1H",
        "ImagingFrequency": 297.20491,
        "InPlanePhaseEncodingDirection": "ROW",
        "LargestImagePixelValue": 4095,
        "MRAcquisitionType": "2D",
        "MagneticFieldStrength": 6.98,
        "Manufacturer": "SIEMENS",
        "ManufacturerModelName": "Investigational_Device_7T",
        "Modality": "MR",
        "NumberOfAverages": 1.0,
        "NumberOfPhaseEncodingSteps": 94,
        "PercentPhaseFieldOfView": 100.0,
        "PercentSampling": 100.0,
        "PerformedProcedureStepStartTime": "130113.462000",
        "PhotometricInterpretation": "MONOCHROME2",
        "PixelBandwidth": 2003.0,
        "PixelRepresentation": 0,
        "PixelSpacing": [
          2.0,
          2.0
        ],
        "PositionReferenceIndicator": "",
        "ProcedureCodeSequence": [
          {
            "CodeMeaning": "MRI Procedure Limited",
            "CodeValue": "MI01491",
            "CodingSchemeDesignator": "USA Standard",
            "ContextIdentifier": "4000112203"
          }
        ],
        "ProtocolName": "NIH_EPI_2.0iso_TR2_Run01.bis",
        "ReferencedStudySequence": [
          {
            "ReferencedSOPClassUID": "1.2.840.10008.3.1.2.3.1",
            "ReferencedSOPInstanceUID": "1.2.840.113564.9.1.2723958737.61.2.5000078010"
          }
        ],
        "RepetitionTime": 2000.0,
        "RequestedProcedureCodeSequence": [
          {
            "CodeMeaning": "MRI Procedure Limited",
            "CodeValue": "MI01491",
            "CodingSchemeDesignator": "USA Standard",
            "ContextIdentifier": "4000112203"
          }
        ],
        "RequestingService": "MHMI",
        "Rows": 768,
        "SAR": 0.09036795682303,
        "SamplesPerPixel": 1,
        "ScanningSequence": "EP",
        "SequenceName": "epfid2d1_96",
        "SequenceVariant": "SK",
        "SeriesDescription": "NIH_EPI_2.0iso_TR2_Run01.bis",
        "SeriesNumber": 6,
        "SliceLocation": -36.78781076192,
        "SliceThickness": 2.0,
        "SmallestImagePixelValue": 0,
        "SoftwareVersions": "syngo MR B17",
        "SpacingBetweenSlices": 1.9999999356774,
        "TransmitCoilName": "32Ch_Head_7T",
        "VariableFlipAngleFlag": "N",
        "WindowCenterWidthExplanation": "Algo1",
        "dBdt": 0.0
      },
      "slices": {}
    },
    "modality": "bold",
    "run_id": 3,
    "session_id": "03",
    "subject_id": "003",
    "task_id": "FullFovAttentionTask",
    "time": {
      "samples": {
        "AcquisitionNumber": [
          1,
          2,
          3,
          4,
          5,
          6,
          7,
          8,
          9,
          10,
          11,
          12,
          13,
          14,
          15,
          16,
          17,
          18,
          19,
          20,
          21,
          22,
          23,
          24,
          25,
          26,
          27,
          28,
          29,
          30,
          31,
          32,
          33,
          34,
          35,
          36,
          37,
          38,
          39,
          40,
          41,
          42,
          43,
          44,
          45,
          46,
          47,
          48,
          49,
          50,
          51,
          52,
          53,
          54,
          55,
          56,
          57,
          58,
          59,
          60,
          61,
          62,
          63,
          64,
          65,
          66,
          67,
          68,
          69,
          70,
          71,
          72,
          73,
          74,
          75,
          76,
          77,
          78,
          79,
          80,
          81,
          82,
          83,
          84,
          85,
          86,
          87,
          88,
          89,
          90,
          91,
          92,
          93,
          94,
          95,
          96,
          97,
          98,
          99,
          100,
          101,
          102,
          103,
          104,
          105,
          106,
          107,
          108,
          109,
          110,
          111,
          112,
          113,
          114,
          115,
          116,
          117,
          118,
          119,
          120,
          121,
          122,
          123,
          124,
          125,
          126,
          127,
          128,
          129,
          130,
          131,
          132,
          133,
          134,
          135,
          136,
          137,
          138,
          139,
          140,
          141,
          142,
          143,
          144,
          145,
          146,
          147,
          148,
          149,
          150,
          151,
          152,
          153,
          154,
          155,
          156,
          157,
          158,
          159,
          160,
          161,
          162,
          163,
          164
        ],
        "AcquisitionTime": [
          "133053.350000",
          "133057.365000",
          "133059.372500",
          "133101.380000",
          "133103.390000",
          "133105.397500",
          "133107.405000",
          "133109.412500",
          "133111.420000",
          "133113.430000",
          "133115.437500",
          "133117.445000",
          "133119.452500",
          "133121.462500",
          "133123.470000",
          "133125.477500",
          "133127.485000",
          "133129.492500",
          "133131.502500",
          "133133.510000",
          "133135.517500",
          "133137.525000",
          "133139.532500",
          "133141.542500",
          "133143.550000",
          "133145.557500",
          "133147.565000",
          "133149.575000",
          "133151.582500",
          "133153.590000",
          "133155.597500",
          "133157.605000",
          "133159.615000",
          "133201.622500",
          "133203.630000",
          "133205.637500",
          "133207.645000",
          "133209.655000",
          "133211.662500",
          "133213.670000",
          "133215.677500",
          "133217.685000",
          "133219.695000",
          "133221.702500",
          "133223.710000",
          "133225.717500",
          "133227.727500",
          "133229.735000",
          "133231.742500",
          "133233.750000",
          "133235.757500",
          "133237.767500",
          "133239.775000",
          "133241.782500",
          "133243.790000",
          "133245.797500",
          "133247.807500",
          "133249.815000",
          "133251.822500",
          "133253.830000",
          "133255.840000",
          "133257.847500",
          "133259.855000",
          "133301.862500",
          "133303.870000",
          "133305.880000",
          "133307.887500",
          "133309.895000",
          "133311.902500",
          "133313.910000",
          "133315.920000",
          "133317.927500",
          "133319.935000",
          "133321.942500",
          "133323.952500",
          "133325.960000",
          "133327.967500",
          "133329.975000",
          "133331.982500",
          "133333.992500",
          "133336.000000",
          "133338.007500",
          "133340.015000",
          "133342.022500",
          "133344.032500",
          "133346.040000",
          "133348.047500",
          "133350.055000",
          "133352.062500",
          "133354.072500",
          "133356.080000",
          "133358.087500",
          "133400.095000",
          "133402.105000",
          "133404.112500",
          "133406.120000",
          "133408.127500",
          "133410.135000",
          "133412.145000",
          "133414.152500",
          "133416.160000",
          "133418.167500",
          "133420.175000",
          "133422.185000",
          "133424.192500",
          "133426.200000",
          "133428.207500",
          "133430.217500",
          "133432.225000",
          "133434.232500",
          "133436.240000",
          "133438.247500",
          "133440.257500",
          "133442.265000",
          "133444.272500",
          "133446.280000",
          "133448.287500",
          "133450.297500",
          "133452.305000",
          "133454.312500",
          "133456.320000",
          "133458.330000",
          "133500.337500",
          "133502.345000",
          "133504.352500",
          "133506.360000",
          "133508.370000",
          "133510.377500",
          "133512.385000",
          "133514.392500",
          "133516.400000",
          "133518.410000",
          "133520.417500",
          "133522.425000",
          "133524.432500",
          "133526.440000",
          "133528.450000",
          "133530.457500",
          "133532.465000",
          "133534.472500",
          "133536.482500",
          "133538.490000",
          "133540.497500",
          "133542.505000",
          "133544.512500",
          "133546.522500",
          "133548.530000",
          "133550.537500",
          "133552.545000",
          "133554.552500",
          "133556.562500",
          "133558.570000",
          "133600.577500",
          "133602.585000",
          "133604.595000",
          "133606.602500",
          "133608.610000",
          "133610.617500",
          "133612.625000",
          "133614.635000",
          "133616.642500",
          "133618.650000",
          "133620.657500",
          "133622.665000"
        ],
        "ContentTime": [
          "133141.337000",
          "133141.352000",
          "133141.352000",
          "133141.352000",
          "133141.352000",
          "133141.352000",
          "133141.352000",
          "133141.368000",
          "133141.383000",
          "133141.383000",
          "133141.383000",
          "133141.383000",
          "133141.383000",
          "133141.383000",
          "133141.383000",
          "133141.399000",
          "133141.399000",
          "133141.399000",
          "133141.399000",
          "133141.399000",
          "133141.399000",
          "133141.415000",
          "133221.337000",
          "133221.337000",
          "133221.337000",
          "133221.337000",
          "133221.337000",
          "133221.352000",
          "133221.352000",
          "133221.352000",
          "133221.368000",
          "133221.368000",
          "133221.368000",
          "133221.368000",
          "133221.368000",
          "133221.368000",
          "133221.368000",
          "133221.383000",
          "133221.383000",
          "133221.383000",
          "133221.383000",
          "133221.383000",
          "133301.337000",
          "133301.337000",
          "133301.337000",
          "133301.337000",
          "133301.337000",
          "133301.352000",
          "133301.352000",
          "133301.352000",
          "133301.352000",
          "133301.352000",
          "133301.352000",
          "133301.352000",
          "133301.368000",
          "133301.368000",
          "133301.368000",
          "133301.368000",
          "133301.368000",
          "133301.368000",
          "133301.383000",
          "133301.383000",
          "133341.337000",
          "133341.337000",
          "133341.337000",
          "133341.337000",
          "133341.337000",
          "133341.352000",
          "133341.352000",
          "133341.352000",
          "133341.368000",
          "133341.368000",
          "133341.368000",
          "133341.368000",
          "133341.368000",
          "133341.383000",
          "133341.383000",
          "133341.383000",
          "133341.383000",
          "133341.383000",
          "133341.399000",
          "133341.399000",
          "133421.337000",
          "133421.337000",
          "133421.337000",
          "133421.337000",
          "133421.352000",
          "133421.352000",
          "133421.352000",
          "133421.352000",
          "133421.352000",
          "133421.352000",
          "133421.352000",
          "133421.368000",
          "133421.368000",
          "133421.368000",
          "133421.368000",
          "133421.368000",
          "133421.368000",
          "133421.368000",
          "133421.383000",
          "133421.383000",
          "133501.337000",
          "133501.337000",
          "133501.337000",
          "133501.337000",
          "133501.337000",
          "133501.352000",
          "133501.352000",
          "133501.352000",
          "133501.352000",
          "133501.352000",
          "133501.352000",
          "133501.368000",
          "133501.368000",
          "133501.368000",
          "133501.368000",
          "133501.368000",
          "133501.383000",
          "133501.383000",
          "133501.383000",
          "133501.383000",
          "133541.337000",
          "133541.337000",
          "133541.337000",
          "133541.352000",
          "133541.352000",
          "133541.352000",
          "133541.352000",
          "133541.352000",
          "133541.352000",
          "133541.352000",
          "133541.368000",
          "133541.368000",
          "133541.368000",
          "133541.368000",
          "133541.368000",
          "133541.368000",
          "133541.368000",
          "133541.383000",
          "133541.383000",
          "133541.383000",
          "133621.337000",
          "133621.337000",
          "133621.337000",
          "133621.352000",
          "133621.352000",
          "133621.352000",
          "133621.352000",
          "133621.352000",
          "133621.368000",
          "133621.368000",
          "133621.368000",
          "133621.368000",
          "133621.368000",
          "133621.368000",
          "133621.368000",
          "133621.383000",
          "133621.383000",
          "133621.383000",
          "133621.383000",
          "133621.383000",
          "133623.712000",
          "133623.727000"
        ],
        "InstanceCreationTime": [
          "133141.337000",
          "133141.352000",
          "133141.352000",
          "133141.352000",
          "133141.352000",
          "133141.352000",
          "133141.352000",
          "133141.368000",
          "133141.383000",
          "133141.383000",
          "133141.383000",
          "133141.383000",
          "133141.383000",
          "133141.383000",
          "133141.383000",
          "133141.399000",
          "133141.399000",
          "133141.399000",
          "133141.399000",
          "133141.399000",
          "133141.399000",
          "133141.415000",
          "133221.337000",
          "133221.337000",
          "133221.337000",
          "133221.337000",
          "133221.337000",
          "133221.352000",
          "133221.352000",
          "133221.352000",
          "133221.368000",
          "133221.368000",
          "133221.368000",
          "133221.368000",
          "133221.368000",
          "133221.368000",
          "133221.368000",
          "133221.383000",
          "133221.383000",
          "133221.383000",
          "133221.383000",
          "133221.383000",
          "133301.337000",
          "133301.337000",
          "133301.337000",
          "133301.337000",
          "133301.337000",
          "133301.352000",
          "133301.352000",
          "133301.352000",
          "133301.352000",
          "133301.352000",
          "133301.352000",
          "133301.352000",
          "133301.368000",
          "133301.368000",
          "133301.368000",
          "133301.368000",
          "133301.368000",
          "133301.368000",
          "133301.383000",
          "133301.383000",
          "133341.337000",
          "133341.337000",
          "133341.337000",
          "133341.337000",
          "133341.337000",
          "133341.352000",
          "133341.352000",
          "133341.352000",
          "133341.368000",
          "133341.368000",
          "133341.368000",
          "133341.368000",
          "133341.368000",
          "133341.383000",
          "133341.383000",
          "133341.383000",
          "133341.383000",
          "133341.383000",
          "133341.399000",
          "133341.399000",
          "133421.337000",
          "133421.337000",
          "133421.337000",
          "133421.337000",
          "133421.352000",
          "133421.352000",
          "133421.352000",
          "133421.352000",
          "133421.352000",
          "133421.352000",
          "133421.352000",
          "133421.368000",
          "133421.368000",
          "133421.368000",
          "133421.368000",
          "133421.368000",
          "133421.368000",
          "133421.368000",
          "133421.383000",
          "133421.383000",
          "133501.337000",
          "133501.337000",
          "133501.337000",
          "133501.337000",
          "133501.337000",
          "133501.352000",
          "133501.352000",
          "133501.352000",
          "133501.352000",
          "133501.352000",
          "133501.352000",
          "133501.368000",
          "133501.368000",
          "133501.368000",
          "133501.368000",
          "133501.368000",
          "133501.383000",
          "133501.383000",
          "133501.383000",
          "133501.383000",
          "133541.337000",
          "133541.337000",
          "133541.337000",
          "133541.352000",
          "133541.352000",
          "133541.352000",
          "133541.352000",
          "133541.352000",
          "133541.352000",
          "133541.352000",
          "133541.368000",
          "133541.368000",
          "133541.368000",
          "133541.368000",
          "133541.368000",
          "133541.368000",
          "133541.368000",
          "133541.383000",
          "133541.383000",
          "133541.383000",
          "133621.337000",
          "133621.337000",
          "133621.337000",
          "133621.352000",
          "133621.352000",
          "133621.352000",
          "133621.352000",
          "133621.352000",
          "133621.368000",
          "133621.368000",
          "133621.368000",
          "133621.368000",
          "133621.368000",
          "133621.368000",
          "133621.368000",
          "133621.383000",
          "133621.383000",
          "133621.383000",
          "133621.383000",
          "133621.383000",
          "133623.712000",
          "133623.727000"
        ],
        "InstanceNumber": [
          1,
          2,
          3,
          4,
          5,
          6,
          7,
          8,
          9,
          10,
          11,
          12,
          13,
          14,
          15,
          16,
          17,
          18,
          19,
          20,
          21,
          22,
          23,
          24,
          25,
          26,
          27,
          28,
          29,
          30,
          31,
          32,
          33,
          34,
          35,
          36,
          37,
          38,
          39,
          40,
          41,
          42,
          43,
          44,
          45,
          46,
          47,
          48,
          49,
          50,
          51,
          52,
          53,
          54,
          55,
          56,
          57,
          58,
          59,
          60,
          61,
          62,
          63,
          64,
          65,
          66,
          67,
          68,
          69,
          70,
          71,
          72,
          73,
          74,
          75,
          76,
          77,
          78,
          79,
          80,
          81,
          82,
          83,
          84,
          85,
          86,
          87,
          88,
          89,
          90,
          91,
          92,
          93,
          94,
          95,
          96,
          97,
          98,
          99,
          100,
          101,
          102,
          103,
          104,
          105,
          106,
          107,
          108,
          109,
          110,
          111,
          112,
          113,
          114,
          115,
          116,
          117,
          118,
          119,
          120,
          121,
          122,
          123,
          124,
          125,
          126,
          127,
          128,
          129,
          130,
          131,
          132,
          133,
          134,
          135,
          136,
          137,
          138,
          139,
          140,
          141,
          142,
          143,
          144,
          145,
          146,
          147,
          148,
          149,
          150,
          151,
          152,
          153,
          154,
          155,
          156,
          157,
          158,
          159,
          160,
          161,
          162,
          163,
          164
        ],
        "WindowCenter": [
          955.0,
          955.0,
          954.0,
          955.0,
          954.0,
          954.0,
          955.0,
          957.0,
          955.0,
          953.0,
          953.0,
          954.0,
          953.0,
          954.0,
          955.0,
          955.0,
          956.0,
          955.0,
          956.0,
          957.0,
          957.0,
          956.0,
          954.0,
          955.0,
          955.0,
          955.0,
          954.0,
          953.0,
          956.0,
          957.0,
          956.0,
          953.0,
          954.0,
          956.0,
          957.0,
          956.0,
          955.0,
          954.0,
          955.0,
          953.0,
          952.0,
          954.0,
          955.0,
          955.0,
          953.0,
          953.0,
          953.0,
          954.0,
          955.0,
          956.0,
          955.0,
          956.0,
          956.0,
          955.0,
          953.0,
          954.0,
          954.0,
          955.0,
          954.0,
          954.0,
          954.0,
          954.0,
          954.0,
          953.0,
          954.0,
          954.0,
          954.0,
          955.0,
          954.0,
          953.0,
          954.0,
          953.0,
          956.0,
          956.0,
          955.0,
          955.0,
          953.0,
          953.0,
          952.0,
          953.0,
          955.0,
          952.0,
          951.0,
          952.0,
          952.0,
          951.0,
          949.0,
          948.0,
          949.0,
          950.0,
          951.0,
          952.0,
          952.0,
          953.0,
          955.0,
          953.0,
          954.0,
          953.0,
          952.0,
          954.0,
          954.0,
          954.0,
          953.0,
          953.0,
          953.0,
          952.0,
          953.0,
          953.0,
          951.0,
          951.0,
          951.0,
          952.0,
          953.0,
          954.0,
          955.0,
          954.0,
          954.0,
          953.0,
          953.0,
          952.0,
          951.0,
          951.0,
          951.0,
          954.0,
          956.0,
          954.0,
          954.0,
          954.0,
          954.0,
          952.0,
          951.0,
          952.0,
          952.0,
          953.0,
          953.0,
          952.0,
          953.0,
          953.0,
          952.0,
          951.0,
          951.0,
          951.0,
          952.0,
          952.0,
          952.0,
          952.0,
          952.0,
          952.0,
          953.0,
          952.0,
          953.0,
          953.0,
          953.0,
          954.0,
          952.0,
          952.0,
          952.0,
          952.0,
          952.0,
          951.0,
          951.0,
          950.0,
          950.0,
          952.0
        ],
        "WindowWidth": [
          2582.0,
          2583.0,
          2584.0,
          2582.0,
          2579.0,
          2592.0,
          2607.0,
          2605.0,
          2592.0,
          2581.0,
          2584.0,
          2583.0,
          2580.0,
          2585.0,
          2595.0,
          2602.0,
          2601.0,
          2593.0,
          2596.0,
          2605.0,
          2599.0,
          2587.0,
          2578.0,
          2579.0,
          2583.0,
          2579.0,
          2576.0,
          2586.0,
          2604.0,
          2600.0,
          2583.0,
          2580.0,
          2589.0,
          2597.0,
          2599.0,
          2596.0,
          2598.0,
          2595.0,
          2587.0,
          2581.0,
          2583.0,
          2599.0,
          2599.0,
          2590.0,
          2577.0,
          2571.0,
          2579.0,
          2588.0,
          2590.0,
          2591.0,
          2598.0,
          2608.0,
          2603.0,
          2588.0,
          2578.0,
          2576.0,
          2573.0,
          2575.0,
          2579.0,
          2588.0,
          2593.0,
          2592.0,
          2590.0,
          2582.0,
          2581.0,
          2591.0,
          2598.0,
          2598.0,
          2592.0,
          2580.0,
          2586.0,
          2593.0,
          2599.0,
          2598.0,
          2596.0,
          2596.0,
          2594.0,
          2588.0,
          2584.0,
          2578.0,
          2578.0,
          2576.0,
          2586.0,
          2580.0,
          2578.0,
          2558.0,
          2545.0,
          2547.0,
          2557.0,
          2565.0,
