{
  "aor": 0.0015475609756097563,
  "aqi": 0.009232708231707317,
  "bids_meta": {
    "AcquisitionMatrixPE": 96,
    "AcquisitionNumber": 1,
    "AcquisitionTime": "13:57:54.825000",
    "BandwidthPerPixelPhaseEncode": 52.083,
    "BaseResolution": 96,
    "BodyPartExamined": "HEAD",
    "ConversionSoftware": "dcm2niix",
    "ConversionSoftwareVersion": "v1.0.20180622 GCC6.3.0",
    "DerivedVendorReportedEchoSpacing": 0.000600004,
    "DeviceSerialNumber": "18926",
    "DwellTime": 2.6e-06,
    "EchoTime": 0.025,
    "EffectiveEchoSpacing": 0.000200001,
    "FlipAngle": 50,
    "ImageOrientationPatientDICOM": [
      0.999992,
      2.12957e-05,
      0.00410407,
      2.05498e-10,
      0.999987,
      -0.00518891
    ],
    "ImageType": [
      "ORIGINAL",
      "PRIMARY",
      "M",
      "ND",
      "ECHO",
      "00",
      "MOSAIC"
    ],
    "InPlanePhaseEncodingDirectionDICOM": "ROW",
    "InstitutionName": "NIMH",
    "InstitutionalDepartmentName": "Department",
    "MRAcquisitionType": "2D",
    "MagneticFieldStrength": 6.98,
    "Manufacturer": "Siemens",
    "ManufacturersModelName": "Investigational_Device_7T",
    "Modality": "MR",
    "ParallelReductionFactorInPlane": 3,
    "PartialFourier": 1,
    "PatientPosition": "HFS",
    "PercentPhaseFOV": 100,
    "PhaseEncodingDirection": "i",
    "PhaseEncodingSteps": 94,
    "PhaseResolution": 1,
    "PixelBandwidth": 2003,
    "ProcedureStepDescription": "MRI_Procedure_Limited",
    "ProtocolName": "NIH_EPI_2.0iso_TR2_Run05",
    "PulseSequenceDetails": "%CustomerSeq%_inati_nih_epi",
    "ReceiveCoilName": "32Ch_Head_7T",
    "ReconMatrixPE": 96,
    "RepetitionTime": 2,
    "SAR": 0.090368,
    "ScanningSequence": "EP",
    "SequenceName": "epfid2d1_96",
    "SequenceVariant": "SK",
    "SeriesDescription": "NIH_EPI_2.0iso_TR2_Run05",
    "SeriesNumber": 10,
    "ShimSetting": [
      -74,
      143,
      1102,
      2258,
      -61,
      565,
      252,
      -378
    ],
    "SliceThickness": 2,
    "SliceTiming": [
      1.005,
      0,
      1.0425,
      0.0375,
      1.0775,
      0.075,
      1.115,
      0.1125,
      1.1525,
      0.15,
      1.19,
      0.1875,
      1.2275,
      0.2225,
      1.265,
      0.26,
      1.3025,
      0.2975,
      1.34,
      0.335,
      1.375,
      0.3725,
      1.4125,
      0.41,
      1.45,
      0.4475,
      1.4875,
      0.485,
      1.525,
      0.52,
      1.5625,
      0.5575,
      1.6,
      0.595,
      1.6375,
      0.6325,
      1.6725,
      0.67,
      1.71,
      0.7075,
      1.7475,
      0.745,
      1.785,
      0.78,
      1.8225,
      0.8175,
      1.86,
      0.855,
      1.8975,
      0.8925,
      1.935,
      0.93,
      1.97,
      0.9675
    ],
    "SoftwareVersions": "syngo_MR_B17",
    "SpacingBetweenSlices": 2,
    "StationName": "FMRIFD7T",
    "TaskName": "FullFovAttentionTask",
    "TotalReadoutTime": 0.0190001,
    "TxRefAmp": 277,
    "dataset": "ds001555",
    "dcmmeta_affine": [
      [
        -1.9999831914901733,
        4.1099659786603127e-10,
        0.008208253420889378,
        95.76705169677734
      ],
      [
        -4.259147317497991e-05,
        1.9999730587005615,
        -0.010377731174230576,
        -70.11437225341797
      ],
      [
        0.008208143524825573,
        0.01037781871855259,
        1.9999561309814453,
        -37.54548645019531
      ],
      [
        0.0,
        0.0,
        0.0,
        1.0
      ]
    ],
    "dcmmeta_reorient_transform": [
      [
        0.0,
        -1.0,
        0.0,
        95.0
      ],
      [
        1.0,
        0.0,
        0.0,
        0.0
      ],
      [
        0.0,
        0.0,
        1.0,
        0.0
      ],
      [
        0.0,
        0.0,
        0.0,
        1.0
      ]
    ],
    "dcmmeta_shape": [
      96,
      96,
      54,
      164
    ],
    "dcmmeta_slice_dim": 2,
    "dcmmeta_version": 0.6,
    "global": {
      "const": {
        "AcquisitionMatrix": [
          0,
          96,
          96,
          0
        ],
        "Allergies": "No Known Allergies",
        "AngioFlag": "N",
        "BitsAllocated": 16,
        "BitsStored": 12,
        "BodyPartExamined": "HEAD",
        "Columns": 768,
        "EchoNumbers": 1,
        "EchoTime": 25.0,
        "EchoTrainLength": 1,
        "FlipAngle": 50.0,
        "HighBit": 11,
        "ImageOrientationPatient": [
          0.9999915780361,
          2.129573671e-05,
          0.00410407156009,
          2.054983e-10,
          0.99998653751898,
          -0.0051889094043
        ],
        "ImagePositionPatient": [
          -767.76139277037,
          -791.88833443707,
          -35.830582786369
        ],
        "ImageType": [
          "ORIGINAL",
          "PRIMARY",
          "M",
          "ND",
          "ECHO_00",
          "MOSAIC"
        ],
        "ImagedNucleus": "1H",
        "ImagingFrequency": 297.205019,
        "InPlanePhaseEncodingDirection": "ROW",
        "LargestImagePixelValue": 4095,
        "MRAcquisitionType": "2D",
        "MagneticFieldStrength": 6.98,
        "Manufacturer": "SIEMENS",
        "ManufacturerModelName": "Investigational_Device_7T",
        "Modality": "MR",
        "NumberOfAverages": 1.0,
        "NumberOfPhaseEncodingSteps": 94,
        "PercentPhaseFieldOfView": 100.0,
        "PercentSampling": 100.0,
        "PerformedProcedureStepStartTime": "130113.462000",
        "PhotometricInterpretation": "MONOCHROME2",
        "PixelBandwidth": 2003.0,
        "PixelRepresentation": 0,
        "PixelSpacing": [
          2.0,
          2.0
        ],
        "PositionReferenceIndicator": "",
        "ProcedureCodeSequence": [
          {
            "CodeMeaning": "MRI Procedure Limited",
            "CodeValue": "MI01491",
            "CodingSchemeDesignator": "USA Standard",
            "ContextIdentifier": "4000112203"
          }
        ],
        "ProtocolName": "NIH_EPI_2.0iso_TR2_Run05",
        "ReferencedStudySequence": [
          {
            "ReferencedSOPClassUID": "1.2.840.10008.3.1.2.3.1",
            "ReferencedSOPInstanceUID": "1.2.840.113564.9.1.2723958737.61.2.5000078010"
          }
        ],
        "RepetitionTime": 2000.0,
        "RequestedProcedureCodeSequence": [
          {
            "CodeMeaning": "MRI Procedure Limited",
            "CodeValue": "MI01491",
            "CodingSchemeDesignator": "USA Standard",
            "ContextIdentifier": "4000112203"
          }
        ],
        "RequestingService": "MHMI",
        "Rows": 768,
        "SAR": 0.09036795682303,
        "SamplesPerPixel": 1,
        "ScanningSequence": "EP",
        "SequenceName": "epfid2d1_96",
        "SequenceVariant": "SK",
        "SeriesDescription": "NIH_EPI_2.0iso_TR2_Run05",
        "SeriesNumber": 10,
        "SliceLocation": -36.78781076192,
        "SliceThickness": 2.0,
        "SmallestImagePixelValue": 0,
        "SoftwareVersions": "syngo MR B17",
        "SpacingBetweenSlices": 1.9999999356774,
        "TransmitCoilName": "32Ch_Head_7T",
        "VariableFlipAngleFlag": "N",
        "WindowCenterWidthExplanation": "Algo1",
        "dBdt": 0.0
      },
      "slices": {}
    },
    "modality": "bold",
    "run_id": 7,
    "session_id": "03",
    "subject_id": "003",
    "task_id": "FullFovAttentionTask",
    "time": {
      "samples": {
        "AcquisitionNumber": [
          1,
          2,
          3,
          4,
          5,
          6,
          7,
          8,
          9,
          10,
          11,
          12,
          13,
          14,
          15,
          16,
          17,
          18,
          19,
          20,
          21,
          22,
          23,
          24,
          25,
          26,
          27,
          28,
          29,
          30,
          31,
          32,
          33,
          34,
          35,
          36,
          37,
          38,
          39,
          40,
          41,
          42,
          43,
          44,
          45,
          46,
          47,
          48,
          49,
          50,
          51,
          52,
          53,
          54,
          55,
          56,
          57,
          58,
          59,
          60,
          61,
          62,
          63,
          64,
          65,
          66,
          67,
          68,
          69,
          70,
          71,
          72,
          73,
          74,
          75,
          76,
          77,
          78,
          79,
          80,
          81,
          82,
          83,
          84,
          85,
          86,
          87,
          88,
          89,
          90,
          91,
          92,
          93,
          94,
          95,
          96,
          97,
          98,
          99,
          100,
          101,
          102,
          103,
          104,
          105,
          106,
          107,
          108,
          109,
          110,
          111,
          112,
          113,
          114,
          115,
          116,
          117,
          118,
          119,
          120,
          121,
          122,
          123,
          124,
          125,
          126,
          127,
          128,
          129,
          130,
          131,
          132,
          133,
          134,
          135,
          136,
          137,
          138,
          139,
          140,
          141,
          142,
          143,
          144,
          145,
          146,
          147,
          148,
          149,
          150,
          151,
          152,
          153,
          154,
          155,
          156,
          157,
          158,
          159,
          160,
          161,
          162,
          163,
          164
        ],
        "AcquisitionTime": [
          "135754.825000",
          "135758.840000",
          "135800.847500",
          "135802.857500",
          "135804.865000",
          "135806.872500",
          "135808.880000",
          "135810.887500",
          "135812.897500",
          "135814.905000",
          "135816.912500",
          "135818.920000",
          "135820.927500",
          "135822.937500",
          "135824.945000",
          "135826.952500",
          "135828.960000",
          "135830.970000",
          "135832.977500",
          "135834.985000",
          "135836.992500",
          "135839.000000",
          "135841.010000",
          "135843.017500",
          "135845.025000",
          "135847.032500",
          "135849.040000",
          "135851.050000",
          "135853.057500",
          "135855.065000",
          "135857.072500",
          "135859.082500",
          "135901.090000",
          "135903.097500",
          "135905.105000",
          "135907.112500",
          "135909.122500",
          "135911.130000",
          "135913.137500",
          "135915.145000",
          "135917.152500",
          "135919.162500",
          "135921.170000",
          "135923.177500",
          "135925.185000",
          "135927.195000",
          "135929.202500",
          "135931.210000",
          "135933.217500",
          "135935.225000",
          "135937.235000",
          "135939.242500",
          "135941.250000",
          "135943.257500",
          "135945.265000",
          "135947.275000",
          "135949.282500",
          "135951.290000",
          "135953.297500",
          "135955.305000",
          "135957.315000",
          "135959.322500",
          "140001.330000",
          "140003.337500",
          "140005.347500",
          "140007.355000",
          "140009.362500",
          "140011.370000",
          "140013.377500",
          "140015.387500",
          "140017.395000",
          "140019.402500",
          "140021.410000",
          "140023.417500",
          "140025.427500",
          "140027.435000",
          "140029.442500",
          "140031.450000",
          "140033.460000",
          "140035.467500",
          "140037.475000",
          "140039.482500",
          "140041.490000",
          "140043.500000",
          "140045.507500",
          "140047.515000",
          "140049.522500",
          "140051.530000",
          "140053.540000",
          "140055.547500",
          "140057.555000",
          "140059.562500",
          "140101.572500",
          "140103.580000",
          "140105.587500",
          "140107.595000",
          "140109.602500",
          "140111.612500",
          "140113.620000",
          "140115.627500",
          "140117.635000",
          "140119.642500",
          "140121.652500",
          "140123.660000",
          "140125.667500",
          "140127.675000",
          "140129.685000",
          "140131.692500",
          "140133.700000",
          "140135.707500",
          "140137.715000",
          "140139.725000",
          "140141.732500",
          "140143.740000",
          "140145.747500",
          "140147.755000",
          "140149.765000",
          "140151.772500",
          "140153.780000",
          "140155.787500",
          "140157.795000",
          "140159.805000",
          "140201.812500",
          "140203.820000",
          "140205.827500",
          "140207.837500",
          "140209.845000",
          "140211.852500",
          "140213.860000",
          "140215.867500",
          "140217.877500",
          "140219.885000",
          "140221.892500",
          "140223.900000",
          "140225.907500",
          "140227.917500",
          "140229.925000",
          "140231.932500",
          "140233.940000",
          "140235.950000",
          "140237.957500",
          "140239.965000",
          "140241.972500",
          "140243.980000",
          "140245.990000",
          "140247.997500",
          "140250.005000",
          "140252.012500",
          "140254.020000",
          "140256.030000",
          "140258.037500",
          "140300.045000",
          "140302.052500",
          "140304.062500",
          "140306.070000",
          "140308.077500",
          "140310.085000",
          "140312.092500",
          "140314.102500",
          "140316.110000",
          "140318.117500",
          "140320.125000",
          "140322.132500",
          "140324.142500"
        ],
        "ContentTime": [
          "135855.962000",
          "135855.977000",
          "135855.977000",
          "135855.977000",
          "135855.977000",
          "135855.993000",
          "135855.993000",
          "135855.993000",
          "135855.993000",
          "135855.993000",
          "135856.008000",
          "135856.008000",
          "135856.008000",
          "135856.008000",
          "135856.008000",
          "135856.008000",
          "135856.008000",
          "135856.024000",
          "135856.024000",
          "135856.024000",
          "135856.024000",
          "135856.040000",
          "135856.040000",
          "135856.040000",
          "135856.040000",
          "135856.040000",
          "135856.040000",
          "135856.055000",
          "135856.055000",
          "135915.962000",
          "135915.962000",
          "135915.962000",
          "135915.962000",
          "135915.977000",
          "135915.977000",
          "135915.977000",
          "135915.977000",
          "135915.977000",
          "135915.993000",
          "135955.962000",
          "135955.962000",
          "135955.962000",
          "135955.977000",
          "135955.977000",
          "135955.977000",
          "135955.977000",
          "135955.977000",
          "135955.977000",
          "135955.993000",
          "135955.993000",
          "135955.993000",
          "135955.993000",
          "135955.993000",
          "135955.993000",
          "135956.008000",
          "135956.008000",
          "135956.008000",
          "135956.008000",
          "135956.008000",
          "140035.962000",
          "140035.962000",
          "140035.962000",
          "140035.962000",
          "140035.962000",
          "140035.977000",
          "140035.977000",
          "140035.977000",
          "140035.977000",
          "140035.977000",
          "140035.993000",
          "140035.993000",
          "140035.993000",
          "140035.993000",
          "140035.993000",
          "140035.993000",
          "140035.993000",
          "140036.008000",
          "140036.008000",
          "140036.008000",
          "140115.962000",
          "140115.962000",
          "140115.962000",
          "140115.962000",
          "140115.962000",
          "140115.977000",
          "140115.977000",
          "140115.977000",
          "140115.977000",
          "140115.977000",
          "140115.977000",
          "140115.977000",
          "140115.993000",
          "140115.993000",
          "140115.993000",
          "140116.008000",
          "140116.008000",
          "140116.008000",
          "140116.008000",
          "140116.008000",
          "140155.962000",
          "140155.962000",
          "140155.962000",
          "140155.962000",
          "140155.962000",
          "140155.977000",
          "140155.977000",
          "140155.993000",
          "140155.993000",
          "140155.993000",
          "140155.993000",
          "140155.993000",
          "140156.008000",
          "140156.008000",
          "140156.008000",
          "140156.008000",
          "140156.008000",
          "140156.024000",
          "140156.024000",
          "140156.024000",
          "140235.962000",
          "140235.962000",
          "140235.962000",
          "140235.962000",
          "140235.962000",
          "140235.977000",
          "140235.977000",
          "140235.977000",
          "140235.977000",
          "140235.977000",
          "140235.977000",
          "140235.977000",
          "140235.993000",
          "140235.993000",
          "140235.993000",
          "140236.008000",
          "140236.008000",
          "140236.008000",
          "140236.008000",
          "140236.008000",
          "140315.962000",
          "140315.962000",
          "140315.962000",
          "140315.962000",
          "140315.977000",
          "140315.977000",
          "140315.977000",
          "140315.977000",
          "140315.977000",
          "140315.977000",
          "140315.993000",
          "140315.993000",
          "140315.993000",
          "140315.993000",
          "140315.993000",
          "140315.993000",
          "140315.993000",
          "140316.008000",
          "140316.008000",
          "140316.008000",
          "140325.165000",
          "140325.165000",
          "140325.165000",
          "140325.180000",
          "140325.180000"
        ],
        "InstanceCreationTime": [
          "135855.962000",
          "135855.977000",
          "135855.977000",
          "135855.977000",
          "135855.977000",
          "135855.993000",
          "135855.993000",
          "135855.993000",
          "135855.993000",
          "135855.993000",
          "135856.008000",
          "135856.008000",
          "135856.008000",
          "135856.008000",
          "135856.008000",
          "135856.008000",
          "135856.008000",
          "135856.024000",
          "135856.024000",
          "135856.024000",
          "135856.024000",
          "135856.040000",
          "135856.040000",
          "135856.040000",
          "135856.040000",
          "135856.040000",
          "135856.040000",
          "135856.055000",
          "135856.055000",
          "135915.962000",
          "135915.962000",
          "135915.962000",
          "135915.962000",
          "135915.977000",
          "135915.977000",
          "135915.977000",
          "135915.977000",
          "135915.977000",
          "135915.993000",
          "135955.962000",
          "135955.962000",
          "135955.962000",
          "135955.977000",
          "135955.977000",
          "135955.977000",
          "135955.977000",
          "135955.977000",
          "135955.977000",
          "135955.993000",
          "135955.993000",
          "135955.993000",
          "135955.993000",
          "135955.993000",
          "135955.993000",
          "135956.008000",
          "135956.008000",
          "135956.008000",
          "135956.008000",
          "135956.008000",
          "140035.962000",
          "140035.962000",
          "140035.962000",
          "140035.962000",
          "140035.962000",
          "140035.977000",
          "140035.977000",
          "140035.977000",
          "140035.977000",
          "140035.977000",
          "140035.993000",
          "140035.993000",
          "140035.993000",
          "140035.993000",
          "140035.993000",
          "140035.993000",
          "140035.993000",
          "140036.008000",
          "140036.008000",
          "140036.008000",
          "140115.962000",
          "140115.962000",
          "140115.962000",
          "140115.962000",
          "140115.962000",
          "140115.977000",
          "140115.977000",
          "140115.977000",
          "140115.977000",
          "140115.977000",
          "140115.977000",
          "140115.977000",
          "140115.993000",
          "140115.993000",
          "140115.993000",
          "140116.008000",
          "140116.008000",
          "140116.008000",
          "140116.008000",
          "140116.008000",
          "140155.962000",
          "140155.962000",
          "140155.962000",
          "140155.962000",
          "140155.962000",
          "140155.977000",
          "140155.977000",
          "140155.993000",
          "140155.993000",
          "140155.993000",
          "140155.993000",
          "140155.993000",
          "140156.008000",
          "140156.008000",
          "140156.008000",
          "140156.008000",
          "140156.008000",
          "140156.024000",
          "140156.024000",
          "140156.024000",
          "140235.962000",
          "140235.962000",
          "140235.962000",
          "140235.962000",
          "140235.962000",
          "140235.977000",
          "140235.977000",
          "140235.977000",
          "140235.977000",
          "140235.977000",
          "140235.977000",
          "140235.977000",
          "140235.993000",
          "140235.993000",
          "140235.993000",
          "140236.008000",
          "140236.008000",
          "140236.008000",
          "140236.008000",
          "140236.008000",
          "140315.962000",
          "140315.962000",
          "140315.962000",
          "140315.962000",
          "140315.977000",
          "140315.977000",
          "140315.977000",
          "140315.977000",
          "140315.977000",
          "140315.977000",
          "140315.993000",
          "140315.993000",
          "140315.993000",
          "140315.993000",
          "140315.993000",
          "140315.993000",
          "140315.993000",
          "140316.008000",
          "140316.008000",
          "140316.008000",
          "140325.165000",
          "140325.165000",
          "140325.165000",
          "140325.180000",
          "140325.180000"
        ],
        "InstanceNumber": [
          1,
          2,
          3,
          4,
          5,
          6,
          7,
          8,
          9,
          10,
          11,
          12,
          13,
          14,
          15,
          16,
          17,
          18,
          19,
          20,
          21,
          22,
          23,
          24,
          25,
          26,
          27,
          28,
          29,
          30,
          31,
          32,
          33,
          34,
          35,
          36,
          37,
          38,
          39,
          40,
          41,
          42,
          43,
          44,
          45,
          46,
          47,
          48,
          49,
          50,
          51,
          52,
          53,
          54,
          55,
          56,
          57,
          58,
          59,
          60,
          61,
          62,
          63,
          64,
          65,
          66,
          67,
          68,
          69,
          70,
          71,
          72,
          73,
          74,
          75,
          76,
          77,
          78,
          79,
          80,
          81,
          82,
          83,
          84,
          85,
          86,
          87,
          88,
          89,
          90,
          91,
          92,
          93,
          94,
          95,
          96,
          97,
          98,
          99,
          100,
          101,
          102,
          103,
          104,
          105,
          106,
          107,
          108,
          109,
          110,
          111,
          112,
          113,
          114,
          115,
          116,
          117,
          118,
          119,
          120,
          121,
          122,
          123,
          124,
          125,
          126,
          127,
          128,
          129,
          130,
          131,
          132,
          133,
          134,
          135,
          136,
          137,
          138,
          139,
          140,
          141,
          142,
          143,
          144,
          145,
          146,
          147,
          148,
          149,
          150,
          151,
          152,
          153,
          154,
          155,
          156,
          157,
          158,
          159,
          160,
          161,
          162,
          163,
          164
        ],
        "WindowCenter": [
          947.0,
          947.0,
          950.0,
          948.0,
          947.0,
          947.0,
          947.0,
          946.0,
          947.0,
          947.0,
          946.0,
          946.0,
          947.0,
          947.0,
          949.0,
          948.0,
          947.0,
          947.0,
          947.0,
          947.0,
          946.0,
          947.0,
          947.0,
          947.0,
          947.0,
          946.0,
          945.0,
          945.0,
          946.0,
          946.0,
          945.0,
          945.0,
          946.0,
          946.0,
          945.0,
          944.0,
          944.0,
          947.0,
          947.0,
          946.0,
          945.0,
          946.0,
          946.0,
          945.0,
          945.0,
          946.0,
          946.0,
          946.0,
          946.0,
          946.0,
          945.0,
          945.0,
          944.0,
          946.0,
          947.0,
          946.0,
          946.0,
          946.0,
          947.0,
          947.0,
          946.0,
          947.0,
          946.0,
          947.0,
          947.0,
          945.0,
          946.0,
          945.0,
          945.0,
          945.0,
          944.0,
          944.0,
          946.0,
          948.0,
          946.0,
          945.0,
          946.0,
          947.0,
          947.0,
          947.0,
          948.0,
          947.0,
          946.0,
          945.0,
          944.0,
          943.0,
          944.0,
          944.0,
          943.0,
          943.0,
          945.0,
          945.0,
          944.0,
          946.0,
          945.0,
          946.0,
          945.0,
          945.0,
          945.0,
          945.0,
          946.0,
          946.0,
          945.0,
          944.0,
          946.0,
          947.0,
          949.0,
          947.0,
          945.0,
          945.0,
          944.0,
          944.0,
          944.0,
          944.0,
          945.0,
          946.0,
          947.0,
          947.0,
          948.0,
          947.0,
          946.0,
          947.0,
          946.0,
          944.0,
          945.0,
          943.0,
          944.0,
          944.0,
          944.0,
          944.0,
          944.0,
          944.0,
          945.0,
          945.0,
          945.0,
          945.0,
          945.0,
          946.0,
          947.0,
          946.0,
          945.0,
          945.0,
          946.0,
          946.0,
          946.0,
          945.0,
          944.0,
          946.0,
          945.0,
          945.0,
          947.0,
          947.0,
          947.0,
          947.0,
          948.0,
          948.0,
          947.0,
          947.0,
          947.0,
          946.0,
          946.0,
          947.0,
          946.0,
          945.0
        ],
        "WindowWidth": [
          2552.0,
          2559.0,
          2569.0,
          2570.0,
          2558.0,
          2549.0,
          2555.0,
          2566.0,
          2569.0,
          2559.0,
          2550.0,
          2551.0,
          2559.0,
          2570.0,
          2570.0,
          2561.0,
          2555.0,
          2556.0,
          2554.0,
          2550.0,
          2556.0,
          2564.0,
          2571.0,
          2566.0,
          2555.0,
          2552.0,
          2551.0,
          2557.0,
          2559.0,
          2555.0,
          2549.0,
          2548.0,
          2552.0,
          2553.0,
          2545.0,
          2545.0,
          2559.0,
          2570.0,
          2564.0,
          2554.0,
          2552.0,
          2562.0,
          2559.0,
          2553.0,
          2558.0,
          2562.0,
          2559.0,
          2551.0,
          2544.0,
          2546.0,
          2544.0,
          2540.0,
          2548.0,
          2561.0,
          2559.0,
          2557.0,
          2560.0,
          2568.0,
          2570.0,
          2562.0,
          2557.0,
          2558.0,
          2561.0,
          2566.0,
          2562.0,
          2553.0,
          2550.0,
          2548.0,
          2544.0,
          2543.0,
          2547.0,
          2557.0,
          2568.0,
          2564.0,
          2550.0,
          2549.0,
          2562.0,
          2566.0,
          2564.0,
          2570.0,
          2566.0,
          2557.0,
          2547.0,
          2548.0,
          2541.0,
          2539.0,
          2537.0,
          2527.0,
          2528.0,
          2544.0,
          2551.0,
