{
  "aor": 0.0011170731707317073,
  "aqi": 0.007956130426829267,
  "bids_meta": {
    "AcquisitionMatrixPE": 96,
    "AcquisitionNumber": 1,
    "AcquisitionTime": "14:34:28.630000",
    "BandwidthPerPixelPhaseEncode": 52.083,
    "BaseResolution": 96,
    "BodyPartExamined": "HEAD",
    "ConversionSoftware": "dcm2niix",
    "ConversionSoftwareVersion": "v1.0.20180622 GCC6.3.0",
    "DerivedVendorReportedEchoSpacing": 0.000600004,
    "DeviceSerialNumber": "18926",
    "DwellTime": 2.6e-06,
    "EchoTime": 0.025,
    "EffectiveEchoSpacing": 0.000200001,
    "FlipAngle": 50,
    "ImageOrientationPatientDICOM": [
      0.999992,
      2.12957e-05,
      0.00410407,
      2.05498e-10,
      0.999987,
      -0.00518891
    ],
    "ImageType": [
      "ORIGINAL",
      "PRIMARY",
      "M",
      "ND",
      "ECHO",
      "00",
      "MOSAIC"
    ],
    "InPlanePhaseEncodingDirectionDICOM": "ROW",
    "InstitutionName": "NIMH",
    "InstitutionalDepartmentName": "Department",
    "MRAcquisitionType": "2D",
    "MagneticFieldStrength": 6.98,
    "Manufacturer": "Siemens",
    "ManufacturersModelName": "Investigational_Device_7T",
    "Modality": "MR",
    "ParallelReductionFactorInPlane": 3,
    "PartialFourier": 1,
    "PatientPosition": "HFS",
    "PercentPhaseFOV": 100,
    "PhaseEncodingDirection": "i",
    "PhaseEncodingSteps": 94,
    "PhaseResolution": 1,
    "PixelBandwidth": 2003,
    "ProcedureStepDescription": "MRI_Procedure_Limited",
    "ProtocolName": "NIH_EPI_2.0iso_TR2_Run10",
    "PulseSequenceDetails": "%CustomerSeq%_inati_nih_epi",
    "ReceiveCoilName": "32Ch_Head_7T",
    "ReconMatrixPE": 96,
    "RepetitionTime": 2,
    "SAR": 0.090368,
    "ScanningSequence": "EP",
    "SequenceName": "epfid2d1_96",
    "SequenceVariant": "SK",
    "SeriesDescription": "NIH_EPI_2.0iso_TR2_Run10",
    "SeriesNumber": 15,
    "ShimSetting": [
      -74,
      143,
      1102,
      2258,
      -61,
      565,
      252,
      -378
    ],
    "SliceThickness": 2,
    "SliceTiming": [
      1.0025,
      0,
      1.04,
      0.0375,
      1.0775,
      0.075,
      1.115,
      0.11,
      1.1525,
      0.1475,
      1.19,
      0.185,
      1.2275,
      0.2225,
      1.2625,
      0.26,
      1.3,
      0.2975,
      1.3375,
      0.335,
      1.375,
      0.3725,
      1.4125,
      0.4075,
      1.45,
      0.445,
      1.4875,
      0.4825,
      1.525,
      0.52,
      1.56,
      0.5575,
      1.5975,
      0.595,
      1.635,
      0.6325,
      1.6725,
      0.6675,
      1.71,
      0.705,
      1.7475,
      0.7425,
      1.785,
      0.78,
      1.8225,
      0.8175,
      1.8575,
      0.855,
      1.895,
      0.8925,
      1.9325,
      0.93,
      1.97,
      0.965
    ],
    "SoftwareVersions": "syngo_MR_B17",
    "SpacingBetweenSlices": 2,
    "StationName": "FMRIFD7T",
    "TaskName": "FullFovAttentionTask",
    "TotalReadoutTime": 0.0190001,
    "TxRefAmp": 277,
    "dataset": "ds001555",
    "dcmmeta_affine": [
      [
        -1.9999831914901733,
        4.1099659786603127e-10,
        0.008208253420889378,
        95.76705169677734
      ],
      [
        -4.259147317497991e-05,
        1.9999730587005615,
        -0.010377731174230576,
        -70.11437225341797
      ],
      [
        0.008208143524825573,
        0.01037781871855259,
        1.9999561309814453,
        -37.54548645019531
      ],
      [
        0.0,
        0.0,
        0.0,
        1.0
      ]
    ],
    "dcmmeta_reorient_transform": [
      [
        0.0,
        -1.0,
        0.0,
        95.0
      ],
      [
        1.0,
        0.0,
        0.0,
        0.0
      ],
      [
        0.0,
        0.0,
        1.0,
        0.0
      ],
      [
        0.0,
        0.0,
        0.0,
        1.0
      ]
    ],
    "dcmmeta_shape": [
      96,
      96,
      54,
      164
    ],
    "dcmmeta_slice_dim": 2,
    "dcmmeta_version": 0.6,
    "global": {
      "const": {
        "AcquisitionMatrix": [
          0,
          96,
          96,
          0
        ],
        "Allergies": "No Known Allergies",
        "AngioFlag": "N",
        "BitsAllocated": 16,
        "BitsStored": 12,
        "BodyPartExamined": "HEAD",
        "Columns": 768,
        "EchoNumbers": 1,
        "EchoTime": 25.0,
        "EchoTrainLength": 1,
        "FlipAngle": 50.0,
        "HighBit": 11,
        "ImageOrientationPatient": [
          0.9999915780361,
          2.129573671e-05,
          0.00410407156009,
          2.054983e-10,
          0.99998653751898,
          -0.0051889094043
        ],
        "ImagePositionPatient": [
          -767.76139277037,
          -791.88833443707,
          -35.830582786369
        ],
        "ImageType": [
          "ORIGINAL",
          "PRIMARY",
          "M",
          "ND",
          "ECHO_00",
          "MOSAIC"
        ],
        "ImagedNucleus": "1H",
        "ImagingFrequency": 297.205128,
        "InPlanePhaseEncodingDirection": "ROW",
        "LargestImagePixelValue": 4095,
        "MRAcquisitionType": "2D",
        "MagneticFieldStrength": 6.98,
        "Manufacturer": "SIEMENS",
        "ManufacturerModelName": "Investigational_Device_7T",
        "Modality": "MR",
        "NumberOfAverages": 1.0,
        "NumberOfPhaseEncodingSteps": 94,
        "PercentPhaseFieldOfView": 100.0,
        "PercentSampling": 100.0,
        "PerformedProcedureStepStartTime": "130113.462000",
        "PhotometricInterpretation": "MONOCHROME2",
        "PixelBandwidth": 2003.0,
        "PixelRepresentation": 0,
        "PixelSpacing": [
          2.0,
          2.0
        ],
        "PositionReferenceIndicator": "",
        "ProcedureCodeSequence": [
          {
            "CodeMeaning": "MRI Procedure Limited",
            "CodeValue": "MI01491",
            "CodingSchemeDesignator": "USA Standard",
            "ContextIdentifier": "4000112203"
          }
        ],
        "ProtocolName": "NIH_EPI_2.0iso_TR2_Run10",
        "ReferencedStudySequence": [
          {
            "ReferencedSOPClassUID": "1.2.840.10008.3.1.2.3.1",
            "ReferencedSOPInstanceUID": "1.2.840.113564.9.1.2723958737.61.2.5000078010"
          }
        ],
        "RepetitionTime": 2000.0,
        "RequestedProcedureCodeSequence": [
          {
            "CodeMeaning": "MRI Procedure Limited",
            "CodeValue": "MI01491",
            "CodingSchemeDesignator": "USA Standard",
            "ContextIdentifier": "4000112203"
          }
        ],
        "RequestingService": "MHMI",
        "Rows": 768,
        "SAR": 0.09036795682303,
        "SamplesPerPixel": 1,
        "ScanningSequence": "EP",
        "SequenceName": "epfid2d1_96",
        "SequenceVariant": "SK",
        "SeriesDescription": "NIH_EPI_2.0iso_TR2_Run10",
        "SeriesNumber": 15,
        "SliceLocation": -36.78781076192,
        "SliceThickness": 2.0,
        "SmallestImagePixelValue": 0,
        "SoftwareVersions": "syngo MR B17",
        "SpacingBetweenSlices": 1.9999999356774,
        "TransmitCoilName": "32Ch_Head_7T",
        "VariableFlipAngleFlag": "N",
        "WindowCenterWidthExplanation": "Algo1",
        "dBdt": 0.0
      },
      "slices": {}
    },
    "modality": "bold",
    "run_id": 12,
    "session_id": "03",
    "subject_id": "003",
    "task_id": "FullFovAttentionTask",
    "time": {
      "samples": {
        "AcquisitionNumber": [
          1,
          2,
          3,
          4,
          5,
          6,
          7,
          8,
          9,
          10,
          11,
          12,
          13,
          14,
          15,
          16,
          17,
          18,
          19,
          20,
          21,
          22,
          23,
          24,
          25,
          26,
          27,
          28,
          29,
          30,
          31,
          32,
          33,
          34,
          35,
          36,
          37,
          38,
          39,
          40,
          41,
          42,
          43,
          44,
          45,
          46,
          47,
          48,
          49,
          50,
          51,
          52,
          53,
          54,
          55,
          56,
          57,
          58,
          59,
          60,
          61,
          62,
          63,
          64,
          65,
          66,
          67,
          68,
          69,
          70,
          71,
          72,
          73,
          74,
          75,
          76,
          77,
          78,
          79,
          80,
          81,
          82,
          83,
          84,
          85,
          86,
          87,
          88,
          89,
          90,
          91,
          92,
          93,
          94,
          95,
          96,
          97,
          98,
          99,
          100,
          101,
          102,
          103,
          104,
          105,
          106,
          107,
          108,
          109,
          110,
          111,
          112,
          113,
          114,
          115,
          116,
          117,
          118,
          119,
          120,
          121,
          122,
          123,
          124,
          125,
          126,
          127,
          128,
          129,
          130,
          131,
          132,
          133,
          134,
          135,
          136,
          137,
          138,
          139,
          140,
          141,
          142,
          143,
          144,
          145,
          146,
          147,
          148,
          149,
          150,
          151,
          152,
          153,
          154,
          155,
          156,
          157,
          158,
          159,
          160,
          161,
          162,
          163,
          164
        ],
        "AcquisitionTime": [
          "143428.630000",
          "143432.647500",
          "143434.655000",
          "143436.662500",
          "143438.670000",
          "143440.680000",
          "143442.687500",
          "143444.695000",
          "143446.702500",
          "143448.710000",
          "143450.720000",
          "143452.727500",
          "143454.735000",
          "143456.742500",
          "143458.752500",
          "143500.760000",
          "143502.767500",
          "143504.775000",
          "143506.782500",
          "143508.792500",
          "143510.800000",
          "143512.807500",
          "143514.815000",
          "143516.822500",
          "143518.832500",
          "143520.840000",
          "143522.847500",
          "143524.855000",
          "143526.865000",
          "143528.872500",
          "143530.880000",
          "143532.887500",
          "143534.895000",
          "143536.905000",
          "143538.912500",
          "143540.920000",
          "143542.927500",
          "143544.935000",
          "143546.945000",
          "143548.952500",
          "143550.960000",
          "143552.967500",
          "143554.975000",
          "143556.985000",
          "143558.992500",
          "143601.000000",
          "143603.007500",
          "143605.017500",
          "143607.025000",
          "143609.032500",
          "143611.040000",
          "143613.047500",
          "143615.057500",
          "143617.065000",
          "143619.072500",
          "143621.080000",
          "143623.087500",
          "143625.097500",
          "143627.105000",
          "143629.112500",
          "143631.120000",
          "143633.130000",
          "143635.137500",
          "143637.145000",
          "143639.152500",
          "143641.160000",
          "143643.170000",
          "143645.177500",
          "143647.185000",
          "143649.192500",
          "143651.200000",
          "143653.210000",
          "143655.217500",
          "143657.225000",
          "143659.232500",
          "143701.242500",
          "143703.250000",
          "143705.257500",
          "143707.265000",
          "143709.272500",
          "143711.282500",
          "143713.290000",
          "143715.297500",
          "143717.305000",
          "143719.312500",
          "143721.322500",
          "143723.330000",
          "143725.337500",
          "143727.345000",
          "143729.352500",
          "143731.362500",
          "143733.370000",
          "143735.377500",
          "143737.385000",
          "143739.395000",
          "143741.402500",
          "143743.410000",
          "143745.417500",
          "143747.425000",
          "143749.435000",
          "143751.442500",
          "143753.450000",
          "143755.457500",
          "143757.465000",
          "143759.475000",
          "143801.482500",
          "143803.490000",
          "143805.497500",
          "143807.507500",
          "143809.515000",
          "143811.522500",
          "143813.530000",
          "143815.537500",
          "143817.547500",
          "143819.555000",
          "143821.562500",
          "143823.570000",
          "143825.577500",
          "143827.587500",
          "143829.595000",
          "143831.602500",
          "143833.610000",
          "143835.620000",
          "143837.627500",
          "143839.635000",
          "143841.642500",
          "143843.650000",
          "143845.660000",
          "143847.667500",
          "143849.675000",
          "143851.682500",
          "143853.690000",
          "143855.700000",
          "143857.707500",
          "143859.715000",
          "143901.722500",
          "143903.730000",
          "143905.740000",
          "143907.747500",
          "143909.755000",
          "143911.762500",
          "143913.772500",
          "143915.780000",
          "143917.787500",
          "143919.795000",
          "143921.802500",
          "143923.812500",
          "143925.820000",
          "143927.827500",
          "143929.835000",
          "143931.842500",
          "143933.852500",
          "143935.860000",
          "143937.867500",
          "143939.875000",
          "143941.885000",
          "143943.892500",
          "143945.900000",
          "143947.907500",
          "143949.915000",
          "143951.925000",
          "143953.932500",
          "143955.940000",
          "143957.947500"
        ],
        "ContentTime": [
          "143521.337000",
          "143521.352000",
          "143521.352000",
          "143521.352000",
          "143521.352000",
          "143521.352000",
          "143521.352000",
          "143521.368000",
          "143521.368000",
          "143521.383000",
          "143521.383000",
          "143521.383000",
          "143521.383000",
          "143521.383000",
          "143521.383000",
          "143521.383000",
          "143521.399000",
          "143521.399000",
          "143521.399000",
          "143521.399000",
          "143521.399000",
          "143521.399000",
          "143521.399000",
          "143521.415000",
          "143521.415000",
          "143601.337000",
          "143601.337000",
          "143601.337000",
          "143601.352000",
          "143601.352000",
          "143601.352000",
          "143601.352000",
          "143601.352000",
          "143601.352000",
          "143601.368000",
          "143601.368000",
          "143601.368000",
          "143601.368000",
          "143601.368000",
          "143601.368000",
          "143601.368000",
          "143601.383000",
          "143601.383000",
          "143601.383000",
          "143601.383000",
          "143641.337000",
          "143641.337000",
          "143641.337000",
          "143641.337000",
          "143641.337000",
          "143641.352000",
          "143641.352000",
          "143641.352000",
          "143641.352000",
          "143641.352000",
          "143641.368000",
          "143641.368000",
          "143641.368000",
          "143641.368000",
          "143641.368000",
          "143641.368000",
          "143641.383000",
          "143641.383000",
          "143641.383000",
          "143641.383000",
          "143721.337000",
          "143721.337000",
          "143721.337000",
          "143721.337000",
          "143721.337000",
          "143721.352000",
          "143721.352000",
          "143721.352000",
          "143721.352000",
          "143721.352000",
          "143721.368000",
          "143721.368000",
          "143721.368000",
          "143721.368000",
          "143721.368000",
          "143721.368000",
          "143721.368000",
          "143721.383000",
          "143721.383000",
          "143721.383000",
          "143801.337000",
          "143801.337000",
          "143801.337000",
          "143801.337000",
          "143801.337000",
          "143801.352000",
          "143801.352000",
          "143801.352000",
          "143801.352000",
          "143801.352000",
          "143801.352000",
          "143801.352000",
          "143801.368000",
          "143801.368000",
          "143801.368000",
          "143801.368000",
          "143801.368000",
          "143801.368000",
          "143801.383000",
          "143801.383000",
          "143841.337000",
          "143841.337000",
          "143841.337000",
          "143841.337000",
          "143841.337000",
          "143841.352000",
          "143841.352000",
          "143841.352000",
          "143841.352000",
          "143841.352000",
          "143841.352000",
          "143841.352000",
          "143841.368000",
          "143841.368000",
          "143841.368000",
          "143841.368000",
          "143841.368000",
          "143841.368000",
          "143841.383000",
          "143841.383000",
          "143921.337000",
          "143921.337000",
          "143921.337000",
          "143921.337000",
          "143921.352000",
          "143921.352000",
          "143921.352000",
          "143921.352000",
          "143921.352000",
          "143921.352000",
          "143921.352000",
          "143921.368000",
          "143921.368000",
          "143921.368000",
          "143921.368000",
          "143921.368000",
          "143921.368000",
          "143921.383000",
          "143921.383000",
          "143921.383000",
          "143958.696000",
          "143958.696000",
          "143958.696000",
          "143958.696000",
          "143958.696000",
          "143958.712000",
          "143958.712000",
          "143958.712000",
          "143958.712000",
          "143958.712000",
          "143958.712000",
          "143958.712000",
          "143958.727000",
          "143958.727000",
          "143958.727000",
          "143958.727000",
          "143958.727000",
          "143958.727000",
          "143958.727000"
        ],
        "InstanceCreationTime": [
          "143521.337000",
          "143521.352000",
          "143521.352000",
          "143521.352000",
          "143521.352000",
          "143521.352000",
          "143521.352000",
          "143521.368000",
          "143521.368000",
          "143521.383000",
          "143521.383000",
          "143521.383000",
          "143521.383000",
          "143521.383000",
          "143521.383000",
          "143521.383000",
          "143521.399000",
          "143521.399000",
          "143521.399000",
          "143521.399000",
          "143521.399000",
          "143521.399000",
          "143521.399000",
          "143521.415000",
          "143521.415000",
          "143601.337000",
          "143601.337000",
          "143601.337000",
          "143601.352000",
          "143601.352000",
          "143601.352000",
          "143601.352000",
          "143601.352000",
          "143601.352000",
          "143601.368000",
          "143601.368000",
          "143601.368000",
          "143601.368000",
          "143601.368000",
          "143601.368000",
          "143601.368000",
          "143601.383000",
          "143601.383000",
          "143601.383000",
          "143601.383000",
          "143641.337000",
          "143641.337000",
          "143641.337000",
          "143641.337000",
          "143641.337000",
          "143641.352000",
          "143641.352000",
          "143641.352000",
          "143641.352000",
          "143641.352000",
          "143641.368000",
          "143641.368000",
          "143641.368000",
          "143641.368000",
          "143641.368000",
          "143641.368000",
          "143641.383000",
          "143641.383000",
          "143641.383000",
          "143641.383000",
          "143721.337000",
          "143721.337000",
          "143721.337000",
          "143721.337000",
          "143721.337000",
          "143721.352000",
          "143721.352000",
          "143721.352000",
          "143721.352000",
          "143721.352000",
          "143721.368000",
          "143721.368000",
          "143721.368000",
          "143721.368000",
          "143721.368000",
          "143721.368000",
          "143721.368000",
          "143721.383000",
          "143721.383000",
          "143721.383000",
          "143801.337000",
          "143801.337000",
          "143801.337000",
          "143801.337000",
          "143801.337000",
          "143801.352000",
          "143801.352000",
          "143801.352000",
          "143801.352000",
          "143801.352000",
          "143801.352000",
          "143801.352000",
          "143801.368000",
          "143801.368000",
          "143801.368000",
          "143801.368000",
          "143801.368000",
          "143801.368000",
          "143801.383000",
          "143801.383000",
          "143841.337000",
          "143841.337000",
          "143841.337000",
          "143841.337000",
          "143841.337000",
          "143841.352000",
          "143841.352000",
          "143841.352000",
          "143841.352000",
          "143841.352000",
          "143841.352000",
          "143841.352000",
          "143841.368000",
          "143841.368000",
          "143841.368000",
          "143841.368000",
          "143841.368000",
          "143841.368000",
          "143841.383000",
          "143841.383000",
          "143921.337000",
          "143921.337000",
          "143921.337000",
          "143921.337000",
          "143921.352000",
          "143921.352000",
          "143921.352000",
          "143921.352000",
          "143921.352000",
          "143921.352000",
          "143921.352000",
          "143921.368000",
          "143921.368000",
          "143921.368000",
          "143921.368000",
          "143921.368000",
          "143921.368000",
          "143921.383000",
          "143921.383000",
          "143921.383000",
          "143958.696000",
          "143958.696000",
          "143958.696000",
          "143958.696000",
          "143958.696000",
          "143958.712000",
          "143958.712000",
          "143958.712000",
          "143958.712000",
          "143958.712000",
          "143958.712000",
          "143958.712000",
          "143958.727000",
          "143958.727000",
          "143958.727000",
          "143958.727000",
          "143958.727000",
          "143958.727000",
          "143958.727000"
        ],
        "InstanceNumber": [
          1,
          2,
          3,
          4,
          5,
          6,
          7,
          8,
          9,
          10,
          11,
          12,
          13,
          14,
          15,
          16,
          17,
          18,
          19,
          20,
          21,
          22,
          23,
          24,
          25,
          26,
          27,
          28,
          29,
          30,
          31,
          32,
          33,
          34,
          35,
          36,
          37,
          38,
          39,
          40,
          41,
          42,
          43,
          44,
          45,
          46,
          47,
          48,
          49,
          50,
          51,
          52,
          53,
          54,
          55,
          56,
          57,
          58,
          59,
          60,
          61,
          62,
          63,
          64,
          65,
          66,
          67,
          68,
          69,
          70,
          71,
          72,
          73,
          74,
          75,
          76,
          77,
          78,
          79,
          80,
          81,
          82,
          83,
          84,
          85,
          86,
          87,
          88,
          89,
          90,
          91,
          92,
          93,
          94,
          95,
          96,
          97,
          98,
          99,
          100,
          101,
          102,
          103,
          104,
          105,
          106,
          107,
          108,
          109,
          110,
          111,
          112,
          113,
          114,
          115,
          116,
          117,
          118,
          119,
          120,
          121,
          122,
          123,
          124,
          125,
          126,
          127,
          128,
          129,
          130,
          131,
          132,
          133,
          134,
          135,
          136,
          137,
          138,
          139,
          140,
          141,
          142,
          143,
          144,
          145,
          146,
          147,
          148,
          149,
          150,
          151,
          152,
          153,
          154,
          155,
          156,
          157,
          158,
          159,
          160,
          161,
          162,
          163,
          164
        ],
        "WindowCenter": [
          945.0,
          945.0,
          947.0,
          946.0,
          945.0,
          944.0,
          944.0,
          944.0,
          944.0,
          944.0,
          944.0,
          944.0,
          943.0,
          944.0,
          944.0,
          943.0,
          945.0,
          945.0,
          946.0,
          945.0,
          944.0,
          944.0,
          945.0,
          944.0,
          943.0,
          943.0,
          944.0,
          943.0,
          944.0,
          944.0,
          946.0,
          947.0,
          946.0,
          944.0,
          943.0,
          944.0,
          944.0,
          944.0,
          943.0,
          943.0,
          943.0,
          943.0,
          944.0,
          943.0,
          942.0,
          943.0,
          944.0,
          944.0,
          945.0,
          944.0,
          946.0,
          947.0,
          945.0,
          944.0,
          944.0,
          945.0,
          945.0,
          943.0,
          943.0,
          943.0,
          944.0,
          944.0,
          943.0,
          942.0,
          943.0,
          943.0,
          943.0,
          943.0,
          943.0,
          942.0,
          942.0,
          942.0,
          942.0,
          942.0,
          943.0,
          942.0,
          942.0,
          943.0,
          943.0,
          943.0,
          944.0,
          943.0,
          943.0,
          944.0,
          944.0,
          945.0,
          945.0,
          943.0,
          943.0,
          942.0,
          942.0,
          942.0,
          943.0,
          943.0,
          942.0,
          943.0,
          942.0,
          941.0,
          942.0,
          942.0,
          941.0,
          941.0,
          942.0,
          943.0,
          943.0,
          941.0,
          941.0,
          941.0,
          941.0,
          941.0,
          942.0,
          942.0,
          942.0,
          943.0,
          943.0,
          942.0,
          942.0,
          942.0,
          944.0,
          943.0,
          943.0,
          944.0,
          944.0,
          943.0,
          942.0,
          942.0,
          942.0,
          942.0,
          942.0,
          942.0,
          942.0,
          941.0,
          941.0,
          941.0,
          941.0,
          942.0,
          941.0,
          941.0,
          943.0,
          943.0,
          944.0,
          944.0,
          944.0,
          944.0,
          943.0,
          942.0,
          942.0,
          943.0,
          943.0,
          943.0,
          943.0,
          943.0,
          942.0,
          942.0,
          942.0,
          941.0,
          941.0,
          942.0,
          942.0,
          942.0,
          941.0,
          942.0,
          942.0,
          942.0
        ],
        "WindowWidth": [
          2538.0,
          2550.0,
          2555.0,
          2546.0,
          2535.0,
          2529.0,
          2531.0,
          2532.0,
          2532.0,
          2533.0,
          2530.0,
          2528.0,
          2536.0,
          2539.0,
          2538.0,
          2537.0,
          2539.0,
          2546.0,
          2547.0,
          2538.0,
          2533.0,
          2529.0,
          2526.0,
          2526.0,
          2525.0,
          2525.0,
          2522.0,
          2525.0,
          2533.0,
          2545.0,
          2555.0,
          2552.0,
          2543.0,
          2531.0,
          2528.0,
          2525.0,
          2528.0,
          2529.0,
          2526.0,
          2526.0,
          2526.0,
          2531.0,
          2535.0,
          2528.0,
          2529.0,
          2535.0,
          2533.0,
          2535.0,
          2537.0,
          2546.0,
          2554.0,
          2552.0,
          2537.0,
          2529.0,
          2541.0,
          2544.0,
          2534.0,
          2524.0,
          2524.0,
          2532.0,
          2536.0,
          2532.0,
          2526.0,
          2523.0,
          2524.0,
          2521.0,
          2524.0,
          2529.0,
          2532.0,
          2529.0,
          2523.0,
          2526.0,
          2531.0,
          2533.0,
          2526.0,
          2525.0,
          2527.0,
          2530.0,
          2533.0,
          2537.0,
          2538.0,
          2533.0,
          2533.0,
          2537.0,
          2545.0,
          2550.0,
          2542.0,
          2529.0,
          2519.0,
          2520.0,
          2522.0,
