{
  "aor": 0.0023882926829268294,
  "aqi": 0.011296610670731707,
  "bids_meta": {
    "AcquisitionMatrixPE": 96,
    "AcquisitionNumber": 1,
    "AcquisitionTime": "13:43:53.637500",
    "BandwidthPerPixelPhaseEncode": 52.083,
    "BaseResolution": 96,
    "BodyPartExamined": "HEAD",
    "ConversionSoftware": "dcm2niix",
    "ConversionSoftwareVersion": "v1.0.20180622 GCC6.3.0",
    "DerivedVendorReportedEchoSpacing": 0.000600004,
    "DeviceSerialNumber": "18926",
    "DwellTime": 2.6e-06,
    "EchoTime": 0.025,
    "EffectiveEchoSpacing": 0.000200001,
    "FlipAngle": 50,
    "ImageOrientationPatientDICOM": [
      0.999992,
      2.12957e-05,
      0.00410407,
      2.05498e-10,
      0.999987,
      -0.00518891
    ],
    "ImageType": [
      "ORIGINAL",
      "PRIMARY",
      "M",
      "ND",
      "ECHO",
      "00",
      "MOSAIC"
    ],
    "InPlanePhaseEncodingDirectionDICOM": "ROW",
    "InstitutionName": "NIMH",
    "InstitutionalDepartmentName": "Department",
    "MRAcquisitionType": "2D",
    "MagneticFieldStrength": 6.98,
    "Manufacturer": "Siemens",
    "ManufacturersModelName": "Investigational_Device_7T",
    "Modality": "MR",
    "ParallelReductionFactorInPlane": 3,
    "PartialFourier": 1,
    "PatientPosition": "HFS",
    "PercentPhaseFOV": 100,
    "PhaseEncodingDirection": "i",
    "PhaseEncodingSteps": 94,
    "PhaseResolution": 1,
    "PixelBandwidth": 2003,
    "ProcedureStepDescription": "MRI_Procedure_Limited",
    "ProtocolName": "NIH_EPI_2.0iso_TR2_Run03",
    "PulseSequenceDetails": "%CustomerSeq%_inati_nih_epi",
    "ReceiveCoilName": "32Ch_Head_7T",
    "ReconMatrixPE": 96,
    "RepetitionTime": 2,
    "SAR": 0.090368,
    "ScanningSequence": "EP",
    "SequenceName": "epfid2d1_96",
    "SequenceVariant": "SK",
    "SeriesDescription": "NIH_EPI_2.0iso_TR2_Run03",
    "SeriesNumber": 8,
    "ShimSetting": [
      -74,
      143,
      1102,
      2258,
      -61,
      565,
      252,
      -378
    ],
    "SliceThickness": 2,
    "SliceTiming": [
      1.0025,
      0,
      1.04,
      0.035,
      1.0775,
      0.0725,
      1.115,
      0.11,
      1.1525,
      0.1475,
      1.1875,
      0.185,
      1.225,
      0.2225,
      1.2625,
      0.26,
      1.3,
      0.295,
      1.3375,
      0.3325,
      1.375,
      0.37,
      1.4125,
      0.4075,
      1.45,
      0.445,
      1.485,
      0.4825,
      1.5225,
      0.52,
      1.56,
      0.5575,
      1.5975,
      0.5925,
      1.635,
      0.63,
      1.6725,
      0.6675,
      1.71,
      0.705,
      1.745,
      0.7425,
      1.7825,
      0.78,
      1.82,
      0.8175,
      1.8575,
      0.855,
      1.895,
      0.89,
      1.9325,
      0.9275,
      1.97,
      0.965
    ],
    "SoftwareVersions": "syngo_MR_B17",
    "SpacingBetweenSlices": 2,
    "StationName": "FMRIFD7T",
    "TaskName": "FullFovAttentionTask",
    "TotalReadoutTime": 0.0190001,
    "TxRefAmp": 277,
    "dataset": "ds001555",
    "dcmmeta_affine": [
      [
        -1.9999831914901733,
        4.1099659786603127e-10,
        0.008208253420889378,
        95.76705169677734
      ],
      [
        -4.259147317497991e-05,
        1.9999730587005615,
        -0.010377731174230576,
        -70.11437225341797
      ],
      [
        0.008208143524825573,
        0.01037781871855259,
        1.9999561309814453,
        -37.54548645019531
      ],
      [
        0.0,
        0.0,
        0.0,
        1.0
      ]
    ],
    "dcmmeta_reorient_transform": [
      [
        0.0,
        -1.0,
        0.0,
        95.0
      ],
      [
        1.0,
        0.0,
        0.0,
        0.0
      ],
      [
        0.0,
        0.0,
        1.0,
        0.0
      ],
      [
        0.0,
        0.0,
        0.0,
        1.0
      ]
    ],
    "dcmmeta_shape": [
      96,
      96,
      54,
      164
    ],
    "dcmmeta_slice_dim": 2,
    "dcmmeta_version": 0.6,
    "global": {
      "const": {
        "AcquisitionMatrix": [
          0,
          96,
          96,
          0
        ],
        "Allergies": "No Known Allergies",
        "AngioFlag": "N",
        "BitsAllocated": 16,
        "BitsStored": 12,
        "BodyPartExamined": "HEAD",
        "Columns": 768,
        "EchoNumbers": 1,
        "EchoTime": 25.0,
        "EchoTrainLength": 1,
        "FlipAngle": 50.0,
        "HighBit": 11,
        "ImageOrientationPatient": [
          0.9999915780361,
          2.129573671e-05,
          0.00410407156009,
          2.054983e-10,
          0.99998653751898,
          -0.0051889094043
        ],
        "ImagePositionPatient": [
          -767.76139277037,
          -791.88833443707,
          -35.830582786369
        ],
        "ImageType": [
          "ORIGINAL",
          "PRIMARY",
          "M",
          "ND",
          "ECHO_00",
          "MOSAIC"
        ],
        "ImagedNucleus": "1H",
        "ImagingFrequency": 297.204961,
        "InPlanePhaseEncodingDirection": "ROW",
        "LargestImagePixelValue": 4095,
        "MRAcquisitionType": "2D",
        "MagneticFieldStrength": 6.98,
        "Manufacturer": "SIEMENS",
        "ManufacturerModelName": "Investigational_Device_7T",
        "Modality": "MR",
        "NumberOfAverages": 1.0,
        "NumberOfPhaseEncodingSteps": 94,
        "PercentPhaseFieldOfView": 100.0,
        "PercentSampling": 100.0,
        "PerformedProcedureStepStartTime": "130113.462000",
        "PhotometricInterpretation": "MONOCHROME2",
        "PixelBandwidth": 2003.0,
        "PixelRepresentation": 0,
        "PixelSpacing": [
          2.0,
          2.0
        ],
        "PositionReferenceIndicator": "",
        "ProcedureCodeSequence": [
          {
            "CodeMeaning": "MRI Procedure Limited",
            "CodeValue": "MI01491",
            "CodingSchemeDesignator": "USA Standard",
            "ContextIdentifier": "4000112203"
          }
        ],
        "ProtocolName": "NIH_EPI_2.0iso_TR2_Run03",
        "ReferencedStudySequence": [
          {
            "ReferencedSOPClassUID": "1.2.840.10008.3.1.2.3.1",
            "ReferencedSOPInstanceUID": "1.2.840.113564.9.1.2723958737.61.2.5000078010"
          }
        ],
        "RepetitionTime": 2000.0,
        "RequestedProcedureCodeSequence": [
          {
            "CodeMeaning": "MRI Procedure Limited",
            "CodeValue": "MI01491",
            "CodingSchemeDesignator": "USA Standard",
            "ContextIdentifier": "4000112203"
          }
        ],
        "RequestingService": "MHMI",
        "Rows": 768,
        "SAR": 0.09036795682303,
        "SamplesPerPixel": 1,
        "ScanningSequence": "EP",
        "SequenceName": "epfid2d1_96",
        "SequenceVariant": "SK",
        "SeriesDescription": "NIH_EPI_2.0iso_TR2_Run03",
        "SeriesNumber": 8,
        "SliceLocation": -36.78781076192,
        "SliceThickness": 2.0,
        "SmallestImagePixelValue": 0,
        "SoftwareVersions": "syngo MR B17",
        "SpacingBetweenSlices": 1.9999999356774,
        "TransmitCoilName": "32Ch_Head_7T",
        "VariableFlipAngleFlag": "N",
        "WindowCenterWidthExplanation": "Algo1",
        "dBdt": 0.0
      },
      "slices": {}
    },
    "modality": "bold",
    "run_id": 5,
    "session_id": "03",
    "subject_id": "003",
    "task_id": "FullFovAttentionTask",
    "time": {
      "samples": {
        "AcquisitionNumber": [
          1,
          2,
          3,
          4,
          5,
          6,
          7,
          8,
          9,
          10,
          11,
          12,
          13,
          14,
          15,
          16,
          17,
          18,
          19,
          20,
          21,
          22,
          23,
          24,
          25,
          26,
          27,
          28,
          29,
          30,
          31,
          32,
          33,
          34,
          35,
          36,
          37,
          38,
          39,
          40,
          41,
          42,
          43,
          44,
          45,
          46,
          47,
          48,
          49,
          50,
          51,
          52,
          53,
          54,
          55,
          56,
          57,
          58,
          59,
          60,
          61,
          62,
          63,
          64,
          65,
          66,
          67,
          68,
          69,
          70,
          71,
          72,
          73,
          74,
          75,
          76,
          77,
          78,
          79,
          80,
          81,
          82,
          83,
          84,
          85,
          86,
          87,
          88,
          89,
          90,
          91,
          92,
          93,
          94,
          95,
          96,
          97,
          98,
          99,
          100,
          101,
          102,
          103,
          104,
          105,
          106,
          107,
          108,
          109,
          110,
          111,
          112,
          113,
          114,
          115,
          116,
          117,
          118,
          119,
          120,
          121,
          122,
          123,
          124,
          125,
          126,
          127,
          128,
          129,
          130,
          131,
          132,
          133,
          134,
          135,
          136,
          137,
          138,
          139,
          140,
          141,
          142,
          143,
          144,
          145,
          146,
          147,
          148,
          149,
          150,
          151,
          152,
          153,
          154,
          155,
          156,
          157,
          158,
          159,
          160,
          161,
          162,
          163,
          164
        ],
        "AcquisitionTime": [
          "134353.637500",
          "134357.652500",
          "134359.662500",
          "134401.670000",
          "134403.677500",
          "134405.685000",
          "134407.695000",
          "134409.702500",
          "134411.710000",
          "134413.717500",
          "134415.725000",
          "134417.735000",
          "134419.742500",
          "134421.750000",
          "134423.757500",
          "134425.765000",
          "134427.775000",
          "134429.782500",
          "134431.790000",
          "134433.797500",
          "134435.807500",
          "134437.815000",
          "134439.822500",
          "134441.830000",
          "134443.837500",
          "134445.847500",
          "134447.855000",
          "134449.862500",
          "134451.870000",
          "134453.877500",
          "134455.887500",
          "134457.895000",
          "134459.902500",
          "134501.910000",
          "134503.917500",
          "134505.927500",
          "134507.935000",
          "134509.942500",
          "134511.950000",
          "134513.960000",
          "134515.967500",
          "134517.975000",
          "134519.982500",
          "134521.990000",
          "134524.000000",
          "134526.007500",
          "134528.015000",
          "134530.022500",
          "134532.030000",
          "134534.040000",
          "134536.047500",
          "134538.055000",
          "134540.062500",
          "134542.072500",
          "134544.080000",
          "134546.087500",
          "134548.095000",
          "134550.102500",
          "134552.112500",
          "134554.120000",
          "134556.127500",
          "134558.135000",
          "134600.142500",
          "134602.152500",
          "134604.160000",
          "134606.167500",
          "134608.175000",
          "134610.185000",
          "134612.192500",
          "134614.200000",
          "134616.207500",
          "134618.215000",
          "134620.225000",
          "134622.232500",
          "134624.240000",
          "134626.247500",
          "134628.255000",
          "134630.265000",
          "134632.272500",
          "134634.280000",
          "134636.287500",
          "134638.295000",
          "134640.305000",
          "134642.312500",
          "134644.320000",
          "134646.327500",
          "134648.337500",
          "134650.345000",
          "134652.352500",
          "134654.360000",
          "134656.367500",
          "134658.377500",
          "134700.385000",
          "134702.392500",
          "134704.400000",
          "134706.407500",
          "134708.417500",
          "134710.425000",
          "134712.432500",
          "134714.440000",
          "134716.450000",
          "134718.457500",
          "134720.465000",
          "134722.472500",
          "134724.480000",
          "134726.490000",
          "134728.497500",
          "134730.505000",
          "134732.512500",
          "134734.520000",
          "134736.530000",
          "134738.537500",
          "134740.545000",
          "134742.552500",
          "134744.562500",
          "134746.570000",
          "134748.577500",
          "134750.585000",
          "134752.592500",
          "134754.602500",
          "134756.610000",
          "134758.617500",
          "134800.625000",
          "134802.632500",
          "134804.642500",
          "134806.650000",
          "134808.657500",
          "134810.665000",
          "134812.675000",
          "134814.682500",
          "134816.690000",
          "134818.697500",
          "134820.705000",
          "134822.715000",
          "134824.722500",
          "134826.730000",
          "134828.737500",
          "134830.745000",
          "134832.755000",
          "134834.762500",
          "134836.770000",
          "134838.777500",
          "134840.785000",
          "134842.795000",
          "134844.802500",
          "134846.810000",
          "134848.817500",
          "134850.827500",
          "134852.835000",
          "134854.842500",
          "134856.850000",
          "134858.857500",
          "134900.867500",
          "134902.875000",
          "134904.882500",
          "134906.890000",
          "134908.897500",
          "134910.907500",
          "134912.915000",
          "134914.922500",
          "134916.930000",
          "134918.940000",
          "134920.947500",
          "134922.955000"
        ],
        "ContentTime": [
          "134455.352000",
          "134455.368000",
          "134455.368000",
          "134455.368000",
          "134455.368000",
          "134455.368000",
          "134455.368000",
          "134455.383000",
          "134455.383000",
          "134455.383000",
          "134455.399000",
          "134455.399000",
          "134455.399000",
          "134455.399000",
          "134455.399000",
          "134455.399000",
          "134455.415000",
          "134455.415000",
          "134455.415000",
          "134455.415000",
          "134455.415000",
          "134455.415000",
          "134455.430000",
          "134455.430000",
          "134455.430000",
          "134455.430000",
          "134455.430000",
          "134455.430000",
          "134455.446000",
          "134535.352000",
          "134535.352000",
          "134535.352000",
          "134535.352000",
          "134535.368000",
          "134535.368000",
          "134535.368000",
          "134535.383000",
          "134535.383000",
          "134535.383000",
          "134535.383000",
          "134535.383000",
          "134535.399000",
          "134535.399000",
          "134535.399000",
          "134535.399000",
          "134535.399000",
          "134535.399000",
          "134535.399000",
          "134535.415000",
          "134615.352000",
          "134615.352000",
          "134615.352000",
          "134615.352000",
          "134615.352000",
          "134615.368000",
          "134615.368000",
          "134615.368000",
          "134615.368000",
          "134615.368000",
          "134615.383000",
          "134615.383000",
          "134615.383000",
          "134615.383000",
          "134615.383000",
          "134615.383000",
          "134615.399000",
          "134615.399000",
          "134615.399000",
          "134615.399000",
          "134655.352000",
          "134655.352000",
          "134655.352000",
          "134655.352000",
          "134655.352000",
          "134655.368000",
          "134655.368000",
          "134655.368000",
          "134655.368000",
          "134655.368000",
          "134655.383000",
          "134655.383000",
          "134655.383000",
          "134655.399000",
          "134655.399000",
          "134655.399000",
          "134655.399000",
          "134655.399000",
          "134655.399000",
          "134655.415000",
          "134735.352000",
          "134735.352000",
          "134735.352000",
          "134735.352000",
          "134735.352000",
          "134735.368000",
          "134735.368000",
          "134735.368000",
          "134735.368000",
          "134735.383000",
          "134735.383000",
          "134735.383000",
          "134735.383000",
          "134735.399000",
          "134735.399000",
          "134735.399000",
          "134735.399000",
          "134735.399000",
          "134735.399000",
          "134735.415000",
          "134815.352000",
          "134815.352000",
          "134815.352000",
          "134815.352000",
          "134815.352000",
          "134815.368000",
          "134815.368000",
          "134815.368000",
          "134815.368000",
          "134815.368000",
          "134815.368000",
          "134815.368000",
          "134815.383000",
          "134815.383000",
          "134815.383000",
          "134815.383000",
          "134815.383000",
          "134815.383000",
          "134815.399000",
          "134815.399000",
          "134855.352000",
          "134855.352000",
          "134855.352000",
          "134855.352000",
          "134855.352000",
          "134855.368000",
          "134855.368000",
          "134855.368000",
          "134855.383000",
          "134855.383000",
          "134855.383000",
          "134855.383000",
          "134855.383000",
          "134855.383000",
          "134855.383000",
          "134855.399000",
          "134855.399000",
          "134855.399000",
          "134855.399000",
          "134855.399000",
          "134923.946000",
          "134923.946000",
          "134923.962000",
          "134923.962000",
          "134923.962000",
          "134923.962000",
          "134923.962000",
          "134923.962000",
          "134923.962000",
          "134923.977000",
          "134923.977000",
          "134923.977000",
          "134923.977000",
          "134923.977000",
          "134923.977000"
        ],
        "InstanceCreationTime": [
          "134455.352000",
          "134455.368000",
          "134455.368000",
          "134455.368000",
          "134455.368000",
          "134455.368000",
          "134455.368000",
          "134455.383000",
          "134455.383000",
          "134455.383000",
          "134455.399000",
          "134455.399000",
          "134455.399000",
          "134455.399000",
          "134455.399000",
          "134455.399000",
          "134455.415000",
          "134455.415000",
          "134455.415000",
          "134455.415000",
          "134455.415000",
          "134455.415000",
          "134455.430000",
          "134455.430000",
          "134455.430000",
          "134455.430000",
          "134455.430000",
          "134455.430000",
          "134455.446000",
          "134535.352000",
          "134535.352000",
          "134535.352000",
          "134535.352000",
          "134535.368000",
          "134535.368000",
          "134535.368000",
          "134535.383000",
          "134535.383000",
          "134535.383000",
          "134535.383000",
          "134535.383000",
          "134535.399000",
          "134535.399000",
          "134535.399000",
          "134535.399000",
          "134535.399000",
          "134535.399000",
          "134535.399000",
          "134535.415000",
          "134615.352000",
          "134615.352000",
          "134615.352000",
          "134615.352000",
          "134615.352000",
          "134615.368000",
          "134615.368000",
          "134615.368000",
          "134615.368000",
          "134615.368000",
          "134615.383000",
          "134615.383000",
          "134615.383000",
          "134615.383000",
          "134615.383000",
          "134615.383000",
          "134615.399000",
          "134615.399000",
          "134615.399000",
          "134615.399000",
          "134655.352000",
          "134655.352000",
          "134655.352000",
          "134655.352000",
          "134655.352000",
          "134655.368000",
          "134655.368000",
          "134655.368000",
          "134655.368000",
          "134655.368000",
          "134655.383000",
          "134655.383000",
          "134655.383000",
          "134655.399000",
          "134655.399000",
          "134655.399000",
          "134655.399000",
          "134655.399000",
          "134655.399000",
          "134655.415000",
          "134735.352000",
          "134735.352000",
          "134735.352000",
          "134735.352000",
          "134735.352000",
          "134735.368000",
          "134735.368000",
          "134735.368000",
          "134735.368000",
          "134735.383000",
          "134735.383000",
          "134735.383000",
          "134735.383000",
          "134735.399000",
          "134735.399000",
          "134735.399000",
          "134735.399000",
          "134735.399000",
          "134735.399000",
          "134735.415000",
          "134815.352000",
          "134815.352000",
          "134815.352000",
          "134815.352000",
          "134815.352000",
          "134815.368000",
          "134815.368000",
          "134815.368000",
          "134815.368000",
          "134815.368000",
          "134815.368000",
          "134815.368000",
          "134815.383000",
          "134815.383000",
          "134815.383000",
          "134815.383000",
          "134815.383000",
          "134815.383000",
          "134815.399000",
          "134815.399000",
          "134855.352000",
          "134855.352000",
          "134855.352000",
          "134855.352000",
          "134855.352000",
          "134855.368000",
          "134855.368000",
          "134855.368000",
          "134855.383000",
          "134855.383000",
          "134855.383000",
          "134855.383000",
          "134855.383000",
          "134855.383000",
          "134855.383000",
          "134855.399000",
          "134855.399000",
          "134855.399000",
          "134855.399000",
          "134855.399000",
          "134923.946000",
          "134923.946000",
          "134923.962000",
          "134923.962000",
          "134923.962000",
          "134923.962000",
          "134923.962000",
          "134923.962000",
          "134923.962000",
          "134923.977000",
          "134923.977000",
          "134923.977000",
          "134923.977000",
          "134923.977000",
          "134923.977000"
        ],
        "InstanceNumber": [
          1,
          2,
          3,
          4,
          5,
          6,
          7,
          8,
          9,
          10,
          11,
          12,
          13,
          14,
          15,
          16,
          17,
          18,
          19,
          20,
          21,
          22,
          23,
          24,
          25,
          26,
          27,
          28,
          29,
          30,
          31,
          32,
          33,
          34,
          35,
          36,
          37,
          38,
          39,
          40,
          41,
          42,
          43,
          44,
          45,
          46,
          47,
          48,
          49,
          50,
          51,
          52,
          53,
          54,
          55,
          56,
          57,
          58,
          59,
          60,
          61,
          62,
          63,
          64,
          65,
          66,
          67,
          68,
          69,
          70,
          71,
          72,
          73,
          74,
          75,
          76,
          77,
          78,
          79,
          80,
          81,
          82,
          83,
          84,
          85,
          86,
          87,
          88,
          89,
          90,
          91,
          92,
          93,
          94,
          95,
          96,
          97,
          98,
          99,
          100,
          101,
          102,
          103,
          104,
          105,
          106,
          107,
          108,
          109,
          110,
          111,
          112,
          113,
          114,
          115,
          116,
          117,
          118,
          119,
          120,
          121,
          122,
          123,
          124,
          125,
          126,
          127,
          128,
          129,
          130,
          131,
          132,
          133,
          134,
          135,
          136,
          137,
          138,
          139,
          140,
          141,
          142,
          143,
          144,
          145,
          146,
          147,
          148,
          149,
          150,
          151,
          152,
          153,
          154,
          155,
          156,
          157,
          158,
          159,
          160,
          161,
          162,
          163,
          164
        ],
        "WindowCenter": [
          949.0,
          949.0,
          950.0,
          949.0,
          949.0,
          950.0,
          951.0,
          951.0,
          950.0,
          949.0,
          949.0,
          949.0,
          950.0,
          950.0,
          949.0,
          951.0,
          953.0,
          954.0,
          952.0,
          949.0,
          949.0,
          950.0,
          950.0,
          950.0,
          950.0,
          949.0,
          950.0,
          950.0,
          950.0,
          950.0,
          952.0,
          952.0,
          951.0,
          950.0,
          950.0,
          950.0,
          949.0,
          949.0,
          949.0,
          949.0,
          949.0,
          950.0,
          951.0,
          950.0,
          949.0,
          949.0,
          949.0,
          949.0,
          950.0,
          950.0,
          951.0,
          950.0,
          950.0,
          951.0,
          951.0,
          951.0,
          951.0,
          951.0,
          950.0,
          950.0,
          951.0,
          951.0,
          951.0,
          950.0,
          949.0,
          950.0,
          951.0,
          952.0,
          951.0,
          949.0,
          948.0,
          949.0,
          947.0,
          946.0,
          946.0,
          947.0,
          949.0,
          949.0,
          948.0,
          948.0,
          949.0,
          951.0,
          950.0,
          949.0,
          949.0,
          949.0,
          949.0,
          949.0,
          949.0,
          949.0,
          949.0,
          949.0,
          950.0,
          949.0,
          948.0,
          947.0,
          948.0,
          948.0,
          949.0,
          948.0,
          947.0,
          948.0,
          949.0,
          949.0,
          951.0,
          951.0,
          951.0,
          949.0,
          951.0,
          950.0,
          950.0,
          948.0,
          948.0,
          947.0,
          948.0,
          948.0,
          947.0,
          948.0,
          948.0,
          948.0,
          947.0,
          947.0,
          949.0,
          949.0,
          949.0,
          949.0,
          949.0,
          948.0,
          948.0,
          948.0,
          948.0,
          949.0,
          950.0,
          949.0,
          948.0,
          949.0,
          951.0,
          949.0,
          949.0,
          947.0,
          947.0,
          946.0,
          945.0,
          944.0,
          945.0,
          946.0,
          948.0,
          949.0,
          951.0,
          950.0,
          949.0,
          949.0,
          950.0,
          951.0,
          951.0,
          950.0,
          948.0,
          950.0,
          950.0,
          948.0,
          947.0,
          955.0,
          949.0,
          950.0
        ],
        "WindowWidth": [
          2566.0,
          2565.0,
          2562.0,
          2556.0,
          2563.0,
          2577.0,
          2581.0,
          2577.0,
          2570.0,
          2564.0,
          2567.0,
          2574.0,
          2578.0,
          2574.0,
          2575.0,
          2590.0,
          2603.0,
          2592.0,
          2571.0,
          2561.0,
          2566.0,
          2578.0,
          2581.0,
          2573.0,
          2564.0,
          2563.0,
          2564.0,
          2569.0,
          2574.0,
          2586.0,
          2594.0,
          2584.0,
          2575.0,
          2570.0,
          2568.0,
          2567.0,
          2566.0,
          2567.0,
          2572.0,
          2567.0,
          2573.0,
          2587.0,
          2583.0,
          2573.0,
          2563.0,
          2561.0,
          2566.0,
          2568.0,
          2570.0,
          2571.0,
          2570.0,
          2573.0,
          2580.0,
          2587.0,
          2582.0,
          2577.0,
          2578.0,
          2578.0,
          2574.0,
          2576.0,
          2581.0,
          2582.0,
          2574.0,
          2571.0,
          2576.0,
          2581.0,
          2582.0,
          2580.0,
          2573.0,
          2565.0,
          2562.0,
          2555.0,
          2544.0,
          2536.0,
          2543.0,
          2555.0,
          2561.0,
          2558.0,
          2558.0,
          2568.0,
          2577.0,
          2576.0,
          2566.0,
          2559.0,
          2559.0,
          2560.0,
          2557.0,
          2557.0,
          2560.0,
          2564.0,
          2569.0,
