{
  "aor": 0.0006955487804878049,
  "aqi": 0.004302702621951219,
  "bids_meta": {
    "AcquisitionMatrixPE": 96,
    "AcquisitionNumber": 1,
    "AcquisitionTime": "14:26:43.890000",
    "BandwidthPerPixelPhaseEncode": 52.083,
    "BaseResolution": 96,
    "BodyPartExamined": "HEAD",
    "ConversionSoftware": "dcm2niix",
    "ConversionSoftwareVersion": "v1.0.20180622 GCC6.3.0",
    "DerivedVendorReportedEchoSpacing": 0.000600004,
    "DeviceSerialNumber": "18926",
    "DwellTime": 2.6e-06,
    "EchoTime": 0.025,
    "EffectiveEchoSpacing": 0.000200001,
    "FlipAngle": 50,
    "ImageOrientationPatientDICOM": [
      0.999992,
      2.12957e-05,
      0.00410407,
      2.05498e-10,
      0.999987,
      -0.00518891
    ],
    "ImageType": [
      "ORIGINAL",
      "PRIMARY",
      "M",
      "ND",
      "ECHO",
      "00",
      "MOSAIC"
    ],
    "InPlanePhaseEncodingDirectionDICOM": "ROW",
    "InstitutionName": "NIMH",
    "InstitutionalDepartmentName": "Department",
    "MRAcquisitionType": "2D",
    "MagneticFieldStrength": 6.98,
    "Manufacturer": "Siemens",
    "ManufacturersModelName": "Investigational_Device_7T",
    "Modality": "MR",
    "ParallelReductionFactorInPlane": 3,
    "PartialFourier": 1,
    "PatientPosition": "HFS",
    "PercentPhaseFOV": 100,
    "PhaseEncodingDirection": "i",
    "PhaseEncodingSteps": 94,
    "PhaseResolution": 1,
    "PixelBandwidth": 2003,
    "ProcedureStepDescription": "MRI_Procedure_Limited",
    "ProtocolName": "NIH_EPI_2.0iso_TR2_Run09",
    "PulseSequenceDetails": "%CustomerSeq%_inati_nih_epi",
    "ReceiveCoilName": "32Ch_Head_7T",
    "ReconMatrixPE": 96,
    "RepetitionTime": 2,
    "SAR": 0.090368,
    "ScanningSequence": "EP",
    "SequenceName": "epfid2d1_96",
    "SequenceVariant": "SK",
    "SeriesDescription": "NIH_EPI_2.0iso_TR2_Run09",
    "SeriesNumber": 14,
    "ShimSetting": [
      -74,
      143,
      1102,
      2258,
      -61,
      565,
      252,
      -378
    ],
    "SliceThickness": 2,
    "SliceTiming": [
      1.005,
      0,
      1.0425,
      0.0375,
      1.08,
      0.075,
      1.1175,
      0.1125,
      1.1525,
      0.15,
      1.19,
      0.1875,
      1.2275,
      0.225,
      1.265,
      0.2625,
      1.3025,
      0.2975,
      1.34,
      0.335,
      1.3775,
      0.3725,
      1.415,
      0.41,
      1.45,
      0.4475,
      1.4875,
      0.485,
      1.525,
      0.5225,
      1.5625,
      0.56,
      1.6,
      0.595,
      1.6375,
      0.6325,
      1.675,
      0.67,
      1.7125,
      0.7075,
      1.7475,
      0.745,
      1.785,
      0.7825,
      1.8225,
      0.82,
      1.86,
      0.8575,
      1.8975,
      0.8925,
      1.935,
      0.93,
      1.9725,
      0.9675
    ],
    "SoftwareVersions": "syngo_MR_B17",
    "SpacingBetweenSlices": 2,
    "StationName": "FMRIFD7T",
    "TaskName": "FullFovAttentionTask",
    "TotalReadoutTime": 0.0190001,
    "TxRefAmp": 277,
    "dataset": "ds001555",
    "dcmmeta_affine": [
      [
        -1.9999831914901733,
        4.1099659786603127e-10,
        0.008208253420889378,
        95.76705169677734
      ],
      [
        -4.259147317497991e-05,
        1.9999730587005615,
        -0.010377731174230576,
        -70.11437225341797
      ],
      [
        0.008208143524825573,
        0.01037781871855259,
        1.9999561309814453,
        -37.54548645019531
      ],
      [
        0.0,
        0.0,
        0.0,
        1.0
      ]
    ],
    "dcmmeta_reorient_transform": [
      [
        0.0,
        -1.0,
        0.0,
        95.0
      ],
      [
        1.0,
        0.0,
        0.0,
        0.0
      ],
      [
        0.0,
        0.0,
        1.0,
        0.0
      ],
      [
        0.0,
        0.0,
        0.0,
        1.0
      ]
    ],
    "dcmmeta_shape": [
      96,
      96,
      54,
      164
    ],
    "dcmmeta_slice_dim": 2,
    "dcmmeta_version": 0.6,
    "global": {
      "const": {
        "AcquisitionMatrix": [
          0,
          96,
          96,
          0
        ],
        "Allergies": "No Known Allergies",
        "AngioFlag": "N",
        "BitsAllocated": 16,
        "BitsStored": 12,
        "BodyPartExamined": "HEAD",
        "Columns": 768,
        "EchoNumbers": 1,
        "EchoTime": 25.0,
        "EchoTrainLength": 1,
        "FlipAngle": 50.0,
        "HighBit": 11,
        "ImageOrientationPatient": [
          0.9999915780361,
          2.129573671e-05,
          0.00410407156009,
          2.054983e-10,
          0.99998653751898,
          -0.0051889094043
        ],
        "ImagePositionPatient": [
          -767.76139277037,
          -791.88833443707,
          -35.830582786369
        ],
        "ImageType": [
          "ORIGINAL",
          "PRIMARY",
          "M",
          "ND",
          "ECHO_00",
          "MOSAIC"
        ],
        "ImagedNucleus": "1H",
        "ImagingFrequency": 297.205113,
        "InPlanePhaseEncodingDirection": "ROW",
        "LargestImagePixelValue": 4095,
        "MRAcquisitionType": "2D",
        "MagneticFieldStrength": 6.98,
        "Manufacturer": "SIEMENS",
        "ManufacturerModelName": "Investigational_Device_7T",
        "Modality": "MR",
        "NumberOfAverages": 1.0,
        "NumberOfPhaseEncodingSteps": 94,
        "PercentPhaseFieldOfView": 100.0,
        "PercentSampling": 100.0,
        "PerformedProcedureStepStartTime": "130113.462000",
        "PhotometricInterpretation": "MONOCHROME2",
        "PixelBandwidth": 2003.0,
        "PixelRepresentation": 0,
        "PixelSpacing": [
          2.0,
          2.0
        ],
        "PositionReferenceIndicator": "",
        "ProcedureCodeSequence": [
          {
            "CodeMeaning": "MRI Procedure Limited",
            "CodeValue": "MI01491",
            "CodingSchemeDesignator": "USA Standard",
            "ContextIdentifier": "4000112203"
          }
        ],
        "ProtocolName": "NIH_EPI_2.0iso_TR2_Run09",
        "ReferencedStudySequence": [
          {
            "ReferencedSOPClassUID": "1.2.840.10008.3.1.2.3.1",
            "ReferencedSOPInstanceUID": "1.2.840.113564.9.1.2723958737.61.2.5000078010"
          }
        ],
        "RepetitionTime": 2000.0,
        "RequestedProcedureCodeSequence": [
          {
            "CodeMeaning": "MRI Procedure Limited",
            "CodeValue": "MI01491",
            "CodingSchemeDesignator": "USA Standard",
            "ContextIdentifier": "4000112203"
          }
        ],
        "RequestingService": "MHMI",
        "Rows": 768,
        "SAR": 0.09036795682303,
        "SamplesPerPixel": 1,
        "ScanningSequence": "EP",
        "SequenceName": "epfid2d1_96",
        "SequenceVariant": "SK",
        "SeriesDescription": "NIH_EPI_2.0iso_TR2_Run09",
        "SeriesNumber": 14,
        "SliceLocation": -36.78781076192,
        "SliceThickness": 2.0,
        "SmallestImagePixelValue": 0,
        "SoftwareVersions": "syngo MR B17",
        "SpacingBetweenSlices": 1.9999999356774,
        "TransmitCoilName": "32Ch_Head_7T",
        "VariableFlipAngleFlag": "N",
        "WindowCenterWidthExplanation": "Algo1",
        "dBdt": 0.0
      },
      "slices": {}
    },
    "modality": "bold",
    "run_id": 11,
    "session_id": "03",
    "subject_id": "003",
    "task_id": "FullFovAttentionTask",
    "time": {
      "samples": {
        "AcquisitionNumber": [
          1,
          2,
          3,
          4,
          5,
          6,
          7,
          8,
          9,
          10,
          11,
          12,
          13,
          14,
          15,
          16,
          17,
          18,
          19,
          20,
          21,
          22,
          23,
          24,
          25,
          26,
          27,
          28,
          29,
          30,
          31,
          32,
          33,
          34,
          35,
          36,
          37,
          38,
          39,
          40,
          41,
          42,
          43,
          44,
          45,
          46,
          47,
          48,
          49,
          50,
          51,
          52,
          53,
          54,
          55,
          56,
          57,
          58,
          59,
          60,
          61,
          62,
          63,
          64,
          65,
          66,
          67,
          68,
          69,
          70,
          71,
          72,
          73,
          74,
          75,
          76,
          77,
          78,
          79,
          80,
          81,
          82,
          83,
          84,
          85,
          86,
          87,
          88,
          89,
          90,
          91,
          92,
          93,
          94,
          95,
          96,
          97,
          98,
          99,
          100,
          101,
          102,
          103,
          104,
          105,
          106,
          107,
          108,
          109,
          110,
          111,
          112,
          113,
          114,
          115,
          116,
          117,
          118,
          119,
          120,
          121,
          122,
          123,
          124,
          125,
          126,
          127,
          128,
          129,
          130,
          131,
          132,
          133,
          134,
          135,
          136,
          137,
          138,
          139,
          140,
          141,
          142,
          143,
          144,
          145,
          146,
          147,
          148,
          149,
          150,
          151,
          152,
          153,
          154,
          155,
          156,
          157,
          158,
          159,
          160,
          161,
          162,
          163,
          164
        ],
        "AcquisitionTime": [
          "142643.890000",
          "142647.905000",
          "142649.915000",
          "142651.922500",
          "142653.930000",
          "142655.937500",
          "142657.945000",
          "142659.955000",
          "142701.962500",
          "142703.970000",
          "142705.977500",
          "142707.987500",
          "142709.995000",
          "142712.002500",
          "142714.010000",
          "142716.017500",
          "142718.027500",
          "142720.035000",
          "142722.042500",
          "142724.050000",
          "142726.057500",
          "142728.067500",
          "142730.075000",
          "142732.082500",
          "142734.090000",
          "142736.100000",
          "142738.107500",
          "142740.115000",
          "142742.122500",
          "142744.130000",
          "142746.140000",
          "142748.147500",
          "142750.155000",
          "142752.162500",
          "142754.170000",
          "142756.180000",
          "142758.187500",
          "142800.195000",
          "142802.202500",
          "142804.212500",
          "142806.220000",
          "142808.227500",
          "142810.235000",
          "142812.242500",
          "142814.252500",
          "142816.260000",
          "142818.267500",
          "142820.275000",
          "142822.282500",
          "142824.292500",
          "142826.300000",
          "142828.307500",
          "142830.315000",
          "142832.322500",
          "142834.332500",
          "142836.340000",
          "142838.347500",
          "142840.355000",
          "142842.365000",
          "142844.372500",
          "142846.380000",
          "142848.387500",
          "142850.395000",
          "142852.405000",
          "142854.412500",
          "142856.420000",
          "142858.427500",
          "142900.435000",
          "142902.445000",
          "142904.452500",
          "142906.460000",
          "142908.467500",
          "142910.477500",
          "142912.485000",
          "142914.492500",
          "142916.500000",
          "142918.507500",
          "142920.517500",
          "142922.525000",
          "142924.532500",
          "142926.540000",
          "142928.547500",
          "142930.557500",
          "142932.565000",
          "142934.572500",
          "142936.580000",
          "142938.590000",
          "142940.597500",
          "142942.605000",
          "142944.612500",
          "142946.620000",
          "142948.630000",
          "142950.637500",
          "142952.645000",
          "142954.652500",
          "142956.660000",
          "142958.670000",
          "143000.677500",
          "143002.685000",
          "143004.692500",
          "143006.702500",
          "143008.710000",
          "143010.717500",
          "143012.725000",
          "143014.732500",
          "143016.742500",
          "143018.750000",
          "143020.757500",
          "143022.765000",
          "143024.772500",
          "143026.782500",
          "143028.790000",
          "143030.797500",
          "143032.805000",
          "143034.812500",
          "143036.822500",
          "143038.830000",
          "143040.837500",
          "143042.845000",
          "143044.855000",
          "143046.862500",
          "143048.870000",
          "143050.877500",
          "143052.885000",
          "143054.895000",
          "143056.902500",
          "143058.910000",
          "143100.917500",
          "143102.925000",
          "143104.935000",
          "143106.942500",
          "143108.950000",
          "143110.957500",
          "143112.967500",
          "143114.975000",
          "143116.982500",
          "143118.990000",
          "143120.997500",
          "143123.007500",
          "143125.015000",
          "143127.022500",
          "143129.030000",
          "143131.037500",
          "143133.047500",
          "143135.055000",
          "143137.062500",
          "143139.070000",
          "143141.080000",
          "143143.087500",
          "143145.095000",
          "143147.102500",
          "143149.110000",
          "143151.120000",
          "143153.127500",
          "143155.135000",
          "143157.142500",
          "143159.150000",
          "143201.160000",
          "143203.167500",
          "143205.175000",
          "143207.182500",
          "143209.190000",
          "143211.200000",
          "143213.207500"
        ],
        "ContentTime": [
          "142735.368000",
          "142735.368000",
          "142735.383000",
          "142735.383000",
          "142735.383000",
          "142735.383000",
          "142735.399000",
          "142735.399000",
          "142735.399000",
          "142735.399000",
          "142735.399000",
          "142735.399000",
          "142735.399000",
          "142735.415000",
          "142735.415000",
          "142735.415000",
          "142735.415000",
          "142735.415000",
          "142735.415000",
          "142735.430000",
          "142735.430000",
          "142735.430000",
          "142735.430000",
          "142735.430000",
          "142815.352000",
          "142815.352000",
          "142815.352000",
          "142815.352000",
          "142815.368000",
          "142815.368000",
          "142815.368000",
          "142815.383000",
          "142815.383000",
          "142815.383000",
          "142815.383000",
          "142815.383000",
          "142815.399000",
          "142815.399000",
          "142815.399000",
          "142815.399000",
          "142815.399000",
          "142815.399000",
          "142815.399000",
          "142815.415000",
          "142855.352000",
          "142855.352000",
          "142855.352000",
          "142855.352000",
          "142855.368000",
          "142855.368000",
          "142855.368000",
          "142855.368000",
          "142855.383000",
          "142855.383000",
          "142855.383000",
          "142855.383000",
          "142855.383000",
          "142855.383000",
          "142855.399000",
          "142855.399000",
          "142855.399000",
          "142855.399000",
          "142855.399000",
          "142855.399000",
          "142935.352000",
          "142935.352000",
          "142935.352000",
          "142935.352000",
          "142935.352000",
          "142935.368000",
          "142935.368000",
          "142935.368000",
          "142935.368000",
          "142935.383000",
          "142935.383000",
          "142935.383000",
          "142935.383000",
          "142935.399000",
          "142935.399000",
          "142935.399000",
          "142935.399000",
          "142935.399000",
          "142935.415000",
          "142935.415000",
          "143015.352000",
          "143015.352000",
          "143015.352000",
          "143015.352000",
          "143015.352000",
          "143015.368000",
          "143015.368000",
          "143015.368000",
          "143015.368000",
          "143015.368000",
          "143015.383000",
          "143015.383000",
          "143015.383000",
          "143015.383000",
          "143015.383000",
          "143015.383000",
          "143015.399000",
          "143015.399000",
          "143015.399000",
          "143015.399000",
          "143055.352000",
          "143055.352000",
          "143055.352000",
          "143055.352000",
          "143055.352000",
          "143055.368000",
          "143055.368000",
          "143055.368000",
          "143055.368000",
          "143055.368000",
          "143055.368000",
          "143055.383000",
          "143055.383000",
          "143055.383000",
          "143055.383000",
          "143055.383000",
          "143055.399000",
          "143055.399000",
          "143055.399000",
          "143055.399000",
          "143135.352000",
          "143135.352000",
          "143135.352000",
          "143135.352000",
          "143135.352000",
          "143135.368000",
          "143135.368000",
          "143135.368000",
          "143135.368000",
          "143135.368000",
          "143135.368000",
          "143135.383000",
          "143135.383000",
          "143135.383000",
          "143135.383000",
          "143135.383000",
          "143135.399000",
          "143135.399000",
          "143135.399000",
          "143135.399000",
          "143213.837000",
          "143213.837000",
          "143213.837000",
          "143213.837000",
          "143213.852000",
          "143213.852000",
          "143213.852000",
          "143213.852000",
          "143213.852000",
          "143213.852000",
          "143213.852000",
          "143213.868000",
          "143213.868000",
          "143213.868000",
          "143213.868000",
          "143213.868000",
          "143213.868000",
          "143213.868000",
          "143213.883000",
          "143213.883000"
        ],
        "InstanceCreationTime": [
          "142735.368000",
          "142735.368000",
          "142735.383000",
          "142735.383000",
          "142735.383000",
          "142735.383000",
          "142735.399000",
          "142735.399000",
          "142735.399000",
          "142735.399000",
          "142735.399000",
          "142735.399000",
          "142735.399000",
          "142735.415000",
          "142735.415000",
          "142735.415000",
          "142735.415000",
          "142735.415000",
          "142735.415000",
          "142735.430000",
          "142735.430000",
          "142735.430000",
          "142735.430000",
          "142735.430000",
          "142815.352000",
          "142815.352000",
          "142815.352000",
          "142815.352000",
          "142815.368000",
          "142815.368000",
          "142815.368000",
          "142815.383000",
          "142815.383000",
          "142815.383000",
          "142815.383000",
          "142815.383000",
          "142815.399000",
          "142815.399000",
          "142815.399000",
          "142815.399000",
          "142815.399000",
          "142815.399000",
          "142815.399000",
          "142815.415000",
          "142855.352000",
          "142855.352000",
          "142855.352000",
          "142855.352000",
          "142855.368000",
          "142855.368000",
          "142855.368000",
          "142855.368000",
          "142855.383000",
          "142855.383000",
          "142855.383000",
          "142855.383000",
          "142855.383000",
          "142855.383000",
          "142855.399000",
          "142855.399000",
          "142855.399000",
          "142855.399000",
          "142855.399000",
          "142855.399000",
          "142935.352000",
          "142935.352000",
          "142935.352000",
          "142935.352000",
          "142935.352000",
          "142935.368000",
          "142935.368000",
          "142935.368000",
          "142935.368000",
          "142935.383000",
          "142935.383000",
          "142935.383000",
          "142935.383000",
          "142935.399000",
          "142935.399000",
          "142935.399000",
          "142935.399000",
          "142935.399000",
          "142935.415000",
          "142935.415000",
          "143015.352000",
          "143015.352000",
          "143015.352000",
          "143015.352000",
          "143015.352000",
          "143015.368000",
          "143015.368000",
          "143015.368000",
          "143015.368000",
          "143015.368000",
          "143015.383000",
          "143015.383000",
          "143015.383000",
          "143015.383000",
          "143015.383000",
          "143015.383000",
          "143015.399000",
          "143015.399000",
          "143015.399000",
          "143015.399000",
          "143055.352000",
          "143055.352000",
          "143055.352000",
          "143055.352000",
          "143055.352000",
          "143055.368000",
          "143055.368000",
          "143055.368000",
          "143055.368000",
          "143055.368000",
          "143055.368000",
          "143055.383000",
          "143055.383000",
          "143055.383000",
          "143055.383000",
          "143055.383000",
          "143055.399000",
          "143055.399000",
          "143055.399000",
          "143055.399000",
          "143135.352000",
          "143135.352000",
          "143135.352000",
          "143135.352000",
          "143135.352000",
          "143135.368000",
          "143135.368000",
          "143135.368000",
          "143135.368000",
          "143135.368000",
          "143135.368000",
          "143135.383000",
          "143135.383000",
          "143135.383000",
          "143135.383000",
          "143135.383000",
          "143135.399000",
          "143135.399000",
          "143135.399000",
          "143135.399000",
          "143213.837000",
          "143213.837000",
          "143213.837000",
          "143213.837000",
          "143213.852000",
          "143213.852000",
          "143213.852000",
          "143213.852000",
          "143213.852000",
          "143213.852000",
          "143213.852000",
          "143213.868000",
          "143213.868000",
          "143213.868000",
          "143213.868000",
          "143213.868000",
          "143213.868000",
          "143213.868000",
          "143213.883000",
          "143213.883000"
        ],
        "InstanceNumber": [
          1,
          2,
          3,
          4,
          5,
          6,
          7,
          8,
          9,
          10,
          11,
          12,
          13,
          14,
          15,
          16,
          17,
          18,
          19,
          20,
          21,
          22,
          23,
          24,
          25,
          26,
          27,
          28,
          29,
          30,
          31,
          32,
          33,
          34,
          35,
          36,
          37,
          38,
          39,
          40,
          41,
          42,
          43,
          44,
          45,
          46,
          47,
          48,
          49,
          50,
          51,
          52,
          53,
          54,
          55,
          56,
          57,
          58,
          59,
          60,
          61,
          62,
          63,
          64,
          65,
          66,
          67,
          68,
          69,
          70,
          71,
          72,
          73,
          74,
          75,
          76,
          77,
          78,
          79,
          80,
          81,
          82,
          83,
          84,
          85,
          86,
          87,
          88,
          89,
          90,
          91,
          92,
          93,
          94,
          95,
          96,
          97,
          98,
          99,
          100,
          101,
          102,
          103,
          104,
          105,
          106,
          107,
          108,
          109,
          110,
          111,
          112,
          113,
          114,
          115,
          116,
          117,
          118,
          119,
          120,
          121,
          122,
          123,
          124,
          125,
          126,
          127,
          128,
          129,
          130,
          131,
          132,
          133,
          134,
          135,
          136,
          137,
          138,
          139,
          140,
          141,
          142,
          143,
          144,
          145,
          146,
          147,
          148,
          149,
          150,
          151,
          152,
          153,
          154,
          155,
          156,
          157,
          158,
          159,
          160,
          161,
          162,
          163,
          164
        ],
        "WindowCenter": [
          945.0,
          945.0,
          946.0,
          946.0,
          945.0,
          945.0,
          945.0,
          945.0,
          944.0,
          944.0,
          943.0,
          942.0,
          943.0,
          942.0,
          944.0,
          944.0,
          944.0,
          943.0,
          944.0,
          943.0,
          943.0,
          943.0,
          943.0,
          943.0,
          944.0,
          945.0,
          944.0,
          945.0,
          944.0,
          944.0,
          946.0,
          944.0,
          944.0,
          944.0,
          943.0,
          943.0,
          944.0,
          946.0,
          944.0,
          943.0,
          943.0,
          943.0,
          942.0,
          942.0,
          943.0,
          943.0,
          943.0,
          943.0,
          943.0,
          944.0,
          944.0,
          944.0,
          944.0,
          944.0,
          945.0,
          945.0,
          945.0,
          945.0,
          945.0,
          944.0,
          945.0,
          946.0,
          944.0,
          943.0,
          942.0,
          942.0,
          942.0,
          941.0,
          942.0,
          941.0,
          941.0,
          944.0,
          944.0,
          943.0,
          942.0,
          943.0,
          943.0,
          943.0,
          944.0,
          946.0,
          945.0,
          946.0,
          947.0,
          946.0,
          944.0,
          943.0,
          945.0,
          944.0,
          944.0,
          943.0,
          942.0,
          943.0,
          942.0,
          941.0,
          941.0,
          941.0,
          942.0,
          942.0,
          942.0,
          943.0,
          944.0,
          943.0,
          943.0,
          944.0,
          944.0,
          943.0,
          943.0,
          942.0,
          942.0,
          942.0,
          943.0,
          943.0,
          943.0,
          944.0,
          945.0,
          944.0,
          945.0,
          946.0,
          945.0,
          944.0,
          944.0,
          942.0,
          942.0,
          941.0,
          942.0,
          942.0,
          941.0,
          941.0,
          943.0,
          943.0,
          943.0,
          941.0,
          942.0,
          944.0,
          943.0,
          942.0,
          941.0,
          942.0,
          942.0,
          941.0,
          941.0,
          944.0,
          944.0,
          943.0,
          943.0,
          943.0,
          942.0,
          942.0,
          942.0,
          943.0,
          943.0,
          943.0,
          944.0,
          942.0,
          943.0,
          944.0,
          943.0,
          942.0,
          942.0,
          942.0,
          943.0,
          946.0,
          945.0,
          944.0
        ],
        "WindowWidth": [
          2528.0,
          2536.0,
          2542.0,
          2536.0,
          2529.0,
          2534.0,
          2536.0,
          2531.0,
          2525.0,
          2518.0,
          2514.0,
          2513.0,
          2512.0,
          2522.0,
          2533.0,
          2533.0,
          2524.0,
          2521.0,
          2522.0,
          2522.0,
          2519.0,
          2518.0,
          2519.0,
          2521.0,
          2525.0,
          2528.0,
          2530.0,
          2531.0,
          2535.0,
          2540.0,
          2540.0,
          2533.0,
          2527.0,
          2524.0,
          2519.0,
          2520.0,
          2531.0,
          2534.0,
          2533.0,
          2537.0,
          2534.0,
          2529.0,
          2522.0,
          2515.0,
          2517.0,
          2519.0,
          2522.0,
          2527.0,
          2535.0,
          2536.0,
          2525.0,
          2517.0,
          2522.0,
          2528.0,
          2525.0,
          2529.0,
          2527.0,
          2525.0,
          2529.0,
          2538.0,
          2547.0,
          2542.0,
          2524.0,
          2513.0,
          2514.0,
          2513.0,
          2512.0,
          2508.0,
          2506.0,
          2509.0,
          2520.0,
          2536.0,
          2535.0,
          2523.0,
          2514.0,
          2517.0,
          2518.0,
          2523.0,
          2529.0,
          2531.0,
          2536.0,
          2546.0,
          2541.0,
          2527.0,
          2520.0,
          2526.0,
          2532.0,
          2524.0,
          2515.0,
          2514.0,
          2524.0,
