{
  "aor": 0.002288475609756098,
  "aqi": 0.00826890981707317,
  "bids_meta": {
    "AcquisitionMatrixPE": 96,
    "AcquisitionNumber": 1,
    "AcquisitionTime": "19:39:33.182500",
    "BandwidthPerPixelPhaseEncode": 52.083,
    "BaseResolution": 96,
    "BodyPartExamined": "HEAD",
    "ConversionSoftware": "dcm2niix",
    "ConversionSoftwareVersion": "v1.0.20180622 GCC6.3.0",
    "DerivedVendorReportedEchoSpacing": 0.000600004,
    "DeviceSerialNumber": "18926",
    "DwellTime": 2.6e-06,
    "EchoTime": 0.025,
    "EffectiveEchoSpacing": 0.000200001,
    "FlipAngle": 50,
    "ImageOrientationPatientDICOM": [
      1,
      -2.05103e-10,
      0,
      2.05103e-10,
      1,
      0
    ],
    "ImageType": [
      "ORIGINAL",
      "PRIMARY",
      "M",
      "ND",
      "ECHO",
      "00",
      "MOSAIC"
    ],
    "InPlanePhaseEncodingDirectionDICOM": "ROW",
    "InstitutionName": "NIMH",
    "InstitutionalDepartmentName": "Department",
    "MRAcquisitionType": "2D",
    "MagneticFieldStrength": 6.98,
    "Manufacturer": "Siemens",
    "ManufacturersModelName": "Investigational_Device_7T",
    "Modality": "MR",
    "ParallelReductionFactorInPlane": 3,
    "PartialFourier": 1,
    "PatientPosition": "HFS",
    "PercentPhaseFOV": 100,
    "PhaseEncodingDirection": "i",
    "PhaseEncodingSteps": 94,
    "PhaseResolution": 1,
    "PixelBandwidth": 2003,
    "ProcedureStepDescription": "UserProtocols_gonzalez",
    "ProtocolName": "NIH_EPI_2.0iso_TR2_Run08",
    "PulseSequenceDetails": "%CustomerSeq%_inati_nih_epi",
    "ReceiveCoilName": "32Ch_Head_7T",
    "ReconMatrixPE": 96,
    "RepetitionTime": 2,
    "SAR": 0.0947952,
    "ScanningSequence": "EP",
    "SequenceName": "epfid2d1_96",
    "SequenceVariant": "SK",
    "SeriesDescription": "NIH_EPI_2.0iso_TR2_Run08",
    "SeriesNumber": 12,
    "ShimSetting": [
      -53,
      37,
      1273,
      2667,
      -26,
      207,
      639,
      -318
    ],
    "SliceThickness": 2,
    "SliceTiming": [
      1.0025,
      0,
      1.04,
      0.0375,
      1.0775,
      0.075,
      1.115,
      0.1125,
      1.1525,
      0.1475,
      1.19,
      0.185,
      1.2275,
      0.2225,
      1.265,
      0.26,
      1.3,
      0.2975,
      1.3375,
      0.335,
      1.375,
      0.3725,
      1.4125,
      0.41,
      1.45,
      0.445,
      1.4875,
      0.4825,
      1.525,
      0.52,
      1.5625,
      0.5575,
      1.5975,
      0.595,
      1.635,
      0.6325,
      1.6725,
      0.67,
      1.71,
      0.705,
      1.7475,
      0.7425,
      1.785,
      0.78,
      1.8225,
      0.8175,
      1.8575,
      0.855,
      1.895,
      0.8925,
      1.9325,
      0.93,
      1.97,
      0.9675
    ],
    "SoftwareVersions": "syngo_MR_B17",
    "SpacingBetweenSlices": 2,
    "StationName": "FMRIFD7T",
    "TaskName": "FullFovAttentionTask",
    "TotalReadoutTime": 0.0190001,
    "TxRefAmp": 284,
    "dataset": "ds001555",
    "dcmmeta_affine": [
      [
        -2.0,
        4.1020681296188855e-10,
        0.0,
        95.98538208007812
      ],
      [
        4.1020681296188855e-10,
        2.0,
        0.0,
        -73.09773254394531
      ],
      [
        0.0,
        0.0,
        2.0,
        -31.2679443359375
      ],
      [
        0.0,
        0.0,
        0.0,
        1.0
      ]
    ],
    "dcmmeta_reorient_transform": [
      [
        0.0,
        -1.0,
        0.0,
        95.0
      ],
      [
        1.0,
        0.0,
        0.0,
        0.0
      ],
      [
        0.0,
        0.0,
        1.0,
        0.0
      ],
      [
        0.0,
        0.0,
        0.0,
        1.0
      ]
    ],
    "dcmmeta_shape": [
      96,
      96,
      54,
      164
    ],
    "dcmmeta_slice_dim": 2,
    "dcmmeta_version": 0.6,
    "global": {
      "const": {
        "AcquisitionMatrix": [
          0,
          96,
          96,
          0
        ],
        "AngioFlag": "N",
        "BitsAllocated": 16,
        "BitsStored": 12,
        "BodyPartExamined": "HEAD",
        "Columns": 768,
        "EchoNumbers": 1,
        "EchoTime": 25.0,
        "EchoTrainLength": 1,
        "FlipAngle": 50.0,
        "HighBit": 11,
        "ImageOrientationPatient": [
          1.0,
          -2.051034e-10,
          0.0,
          2.051034e-10,
          1.0,
          0.0
        ],
        "ImagePositionPatient": [
          -767.98537955166,
          -788.90226539119,
          -31.267944335938
        ],
        "ImageType": [
          "ORIGINAL",
          "PRIMARY",
          "M",
          "ND",
          "ECHO_00",
          "MOSAIC"
        ],
        "ImagedNucleus": "1H",
        "ImagingFrequency": 297.204996,
        "InPlanePhaseEncodingDirection": "ROW",
        "LargestImagePixelValue": 4095,
        "MRAcquisitionType": "2D",
        "MagneticFieldStrength": 6.98,
        "Manufacturer": "SIEMENS",
        "ManufacturerModelName": "Investigational_Device_7T",
        "Modality": "MR",
        "NumberOfAverages": 1.0,
        "NumberOfPhaseEncodingSteps": 94,
        "PercentPhaseFieldOfView": 100.0,
        "PercentSampling": 100.0,
        "PerformedProcedureStepStartTime": "182646.437000",
        "PhotometricInterpretation": "MONOCHROME2",
        "PixelBandwidth": 2003.0,
        "PixelRepresentation": 0,
        "PixelSpacing": [
          2.0,
          2.0
        ],
        "PositionReferenceIndicator": "",
        "ProtocolName": "NIH_EPI_2.0iso_TR2_Run08",
        "RepetitionTime": 2000.0,
        "Rows": 768,
        "SAR": 0.09479516296267,
        "SamplesPerPixel": 1,
        "ScanningSequence": "EP",
        "SequenceName": "epfid2d1_96",
        "SequenceVariant": "SK",
        "SeriesDescription": "NIH_EPI_2.0iso_TR2_Run08",
        "SeriesNumber": 12,
        "SliceLocation": -31.267944335938,
        "SliceThickness": 2.0,
        "SmallestImagePixelValue": 0,
        "SoftwareVersions": "syngo MR B17",
        "SpacingBetweenSlices": 2.0,
        "TransmitCoilName": "32Ch_Head_7T",
        "VariableFlipAngleFlag": "N",
        "WindowCenterWidthExplanation": "Algo1",
        "dBdt": 0.0
      },
      "slices": {}
    },
    "modality": "bold",
    "run_id": 9,
    "session_id": "06",
    "subject_id": "003",
    "task_id": "FullFovAttentionTask",
    "time": {
      "samples": {
        "AcquisitionNumber": [
          1,
          2,
          3,
          4,
          5,
          6,
          7,
          8,
          9,
          10,
          11,
          12,
          13,
          14,
          15,
          16,
          17,
          18,
          19,
          20,
          21,
          22,
          23,
          24,
          25,
          26,
          27,
          28,
          29,
          30,
          31,
          32,
          33,
          34,
          35,
          36,
          37,
          38,
          39,
          40,
          41,
          42,
          43,
          44,
          45,
          46,
          47,
          48,
          49,
          50,
          51,
          52,
          53,
          54,
          55,
          56,
          57,
          58,
          59,
          60,
          61,
          62,
          63,
          64,
          65,
          66,
          67,
          68,
          69,
          70,
          71,
          72,
          73,
          74,
          75,
          76,
          77,
          78,
          79,
          80,
          81,
          82,
          83,
          84,
          85,
          86,
          87,
          88,
          89,
          90,
          91,
          92,
          93,
          94,
          95,
          96,
          97,
          98,
          99,
          100,
          101,
          102,
          103,
          104,
          105,
          106,
          107,
          108,
          109,
          110,
          111,
          112,
          113,
          114,
          115,
          116,
          117,
          118,
          119,
          120,
          121,
          122,
          123,
          124,
          125,
          126,
          127,
          128,
          129,
          130,
          131,
          132,
          133,
          134,
          135,
          136,
          137,
          138,
          139,
          140,
          141,
          142,
          143,
          144,
          145,
          146,
          147,
          148,
          149,
          150,
          151,
          152,
          153,
          154,
          155,
          156,
          157,
          158,
          159,
          160,
          161,
          162,
          163,
          164
        ],
        "AcquisitionTime": [
          "193933.182500",
          "193937.200000",
          "193939.207500",
          "193941.215000",
          "193943.225000",
          "193945.232500",
          "193947.240000",
          "193949.247500",
          "193951.255000",
          "193953.265000",
          "193955.272500",
          "193957.280000",
          "193959.287500",
          "194001.295000",
          "194003.305000",
          "194005.312500",
          "194007.320000",
          "194009.327500",
          "194011.335000",
          "194013.345000",
          "194015.352500",
          "194017.360000",
          "194019.367500",
          "194021.377500",
          "194023.385000",
          "194025.392500",
          "194027.400000",
          "194029.407500",
          "194031.417500",
          "194033.425000",
          "194035.432500",
          "194037.440000",
          "194039.447500",
          "194041.457500",
          "194043.465000",
          "194045.472500",
          "194047.480000",
          "194049.490000",
          "194051.497500",
          "194053.505000",
          "194055.512500",
          "194057.520000",
          "194059.530000",
          "194101.537500",
          "194103.545000",
          "194105.552500",
          "194107.560000",
          "194109.570000",
          "194111.577500",
          "194113.585000",
          "194115.592500",
          "194117.602500",
          "194119.610000",
          "194121.617500",
          "194123.625000",
          "194125.632500",
          "194127.642500",
          "194129.650000",
          "194131.657500",
          "194133.665000",
          "194135.672500",
          "194137.682500",
          "194139.690000",
          "194141.697500",
          "194143.705000",
          "194145.715000",
          "194147.722500",
          "194149.730000",
          "194151.737500",
          "194153.745000",
          "194155.755000",
          "194157.762500",
          "194159.770000",
          "194201.777500",
          "194203.785000",
          "194205.795000",
          "194207.802500",
          "194209.810000",
          "194211.817500",
          "194213.825000",
          "194215.835000",
          "194217.842500",
          "194219.850000",
          "194221.857500",
          "194223.867500",
          "194225.875000",
          "194227.882500",
          "194229.890000",
          "194231.897500",
          "194233.907500",
          "194235.915000",
          "194237.922500",
          "194239.930000",
          "194241.937500",
          "194243.947500",
          "194245.955000",
          "194247.962500",
          "194249.970000",
          "194251.980000",
          "194253.987500",
          "194255.995000",
          "194258.002500",
          "194300.010000",
          "194302.020000",
          "194304.027500",
          "194306.035000",
          "194308.042500",
          "194310.050000",
          "194312.060000",
          "194314.067500",
          "194316.075000",
          "194318.082500",
          "194320.092500",
          "194322.100000",
          "194324.107500",
          "194326.115000",
          "194328.122500",
          "194330.132500",
          "194332.140000",
          "194334.147500",
          "194336.155000",
          "194338.162500",
          "194340.172500",
          "194342.180000",
          "194344.187500",
          "194346.195000",
          "194348.202500",
          "194350.212500",
          "194352.220000",
          "194354.227500",
          "194356.235000",
          "194358.245000",
          "194400.252500",
          "194402.260000",
          "194404.267500",
          "194406.275000",
          "194408.285000",
          "194410.292500",
          "194412.300000",
          "194414.307500",
          "194416.315000",
          "194418.325000",
          "194420.332500",
          "194422.340000",
          "194424.347500",
          "194426.357500",
          "194428.365000",
          "194430.372500",
          "194432.380000",
          "194434.387500",
          "194436.397500",
          "194438.405000",
          "194440.412500",
          "194442.420000",
          "194444.427500",
          "194446.437500",
          "194448.445000",
          "194450.452500",
          "194452.460000",
          "194454.470000",
          "194456.477500",
          "194458.485000",
          "194500.492500",
          "194502.500000"
        ],
        "ContentTime": [
          "194031.453000",
          "194031.453000",
          "194031.468000",
          "194031.468000",
          "194031.468000",
          "194031.468000",
          "194031.468000",
          "194031.468000",
          "194031.468000",
          "194031.484000",
          "194031.484000",
          "194031.484000",
          "194031.484000",
          "194031.484000",
          "194031.500000",
          "194031.500000",
          "194031.500000",
          "194031.500000",
          "194031.500000",
          "194031.500000",
          "194031.515000",
          "194031.515000",
          "194031.515000",
          "194031.515000",
          "194031.515000",
          "194031.515000",
          "194031.515000",
          "194031.531000",
          "194111.437000",
          "194111.453000",
          "194111.453000",
          "194111.453000",
          "194111.453000",
          "194111.453000",
          "194111.468000",
          "194111.468000",
          "194111.468000",
          "194111.468000",
          "194111.468000",
          "194111.484000",
          "194111.484000",
          "194111.484000",
          "194111.484000",
          "194111.484000",
          "194111.484000",
          "194111.500000",
          "194111.500000",
          "194111.500000",
          "194151.437000",
          "194151.453000",
          "194151.453000",
          "194151.453000",
          "194151.453000",
          "194151.453000",
          "194151.468000",
          "194151.468000",
          "194151.468000",
          "194151.468000",
          "194151.468000",
          "194151.468000",
          "194151.468000",
          "194151.484000",
          "194151.484000",
          "194151.484000",
          "194151.484000",
          "194151.500000",
          "194151.500000",
          "194151.500000",
          "194231.437000",
          "194231.453000",
          "194231.453000",
          "194231.453000",
          "194231.453000",
          "194231.453000",
          "194231.468000",
          "194231.468000",
          "194231.468000",
          "194231.468000",
          "194231.468000",
          "194231.484000",
          "194231.484000",
          "194231.484000",
          "194231.484000",
          "194231.484000",
          "194231.500000",
          "194231.500000",
          "194231.500000",
          "194231.500000",
          "194311.437000",
          "194311.453000",
          "194311.453000",
          "194311.453000",
          "194311.453000",
          "194311.468000",
          "194311.468000",
          "194311.468000",
          "194311.484000",
          "194311.484000",
          "194311.484000",
          "194311.484000",
          "194311.484000",
          "194311.484000",
          "194311.484000",
          "194311.500000",
          "194311.500000",
          "194311.500000",
          "194311.500000",
          "194311.500000",
          "194351.437000",
          "194351.453000",
          "194351.453000",
          "194351.453000",
          "194351.453000",
          "194351.453000",
          "194351.453000",
          "194351.468000",
          "194351.468000",
          "194351.468000",
          "194351.468000",
          "194351.468000",
          "194351.468000",
          "194351.468000",
          "194351.484000",
          "194351.484000",
          "194351.484000",
          "194351.484000",
          "194351.484000",
          "194351.484000",
          "194431.437000",
          "194431.453000",
          "194431.453000",
          "194431.453000",
          "194431.453000",
          "194431.453000",
          "194431.453000",
          "194431.468000",
          "194431.468000",
          "194431.468000",
          "194431.468000",
          "194431.468000",
          "194431.468000",
          "194431.484000",
          "194431.484000",
          "194431.484000",
          "194431.484000",
          "194431.484000",
          "194431.484000",
          "194431.500000",
          "194502.921000",
          "194502.921000",
          "194502.921000",
          "194502.921000",
          "194502.921000",
          "194502.937000",
          "194502.937000",
          "194502.937000",
          "194502.937000",
          "194502.953000",
          "194502.953000",
          "194502.953000",
          "194502.953000",
          "194502.953000",
          "194502.968000",
          "194502.968000"
        ],
        "InstanceCreationTime": [
          "194031.453000",
          "194031.453000",
          "194031.468000",
          "194031.468000",
          "194031.468000",
          "194031.468000",
          "194031.468000",
          "194031.468000",
          "194031.468000",
          "194031.484000",
          "194031.484000",
          "194031.484000",
          "194031.484000",
          "194031.484000",
          "194031.500000",
          "194031.500000",
          "194031.500000",
          "194031.500000",
          "194031.500000",
          "194031.500000",
          "194031.515000",
          "194031.515000",
          "194031.515000",
          "194031.515000",
          "194031.515000",
          "194031.515000",
          "194031.515000",
          "194031.531000",
          "194111.437000",
          "194111.453000",
          "194111.453000",
          "194111.453000",
          "194111.453000",
          "194111.453000",
          "194111.468000",
          "194111.468000",
          "194111.468000",
          "194111.468000",
          "194111.468000",
          "194111.484000",
          "194111.484000",
          "194111.484000",
          "194111.484000",
          "194111.484000",
          "194111.484000",
          "194111.500000",
          "194111.500000",
          "194111.500000",
          "194151.437000",
          "194151.453000",
          "194151.453000",
          "194151.453000",
          "194151.453000",
          "194151.453000",
          "194151.468000",
          "194151.468000",
          "194151.468000",
          "194151.468000",
          "194151.468000",
          "194151.468000",
          "194151.468000",
          "194151.484000",
          "194151.484000",
          "194151.484000",
          "194151.484000",
          "194151.500000",
          "194151.500000",
          "194151.500000",
          "194231.437000",
          "194231.453000",
          "194231.453000",
          "194231.453000",
          "194231.453000",
          "194231.453000",
          "194231.468000",
          "194231.468000",
          "194231.468000",
          "194231.468000",
          "194231.468000",
          "194231.484000",
          "194231.484000",
          "194231.484000",
          "194231.484000",
          "194231.484000",
          "194231.500000",
          "194231.500000",
          "194231.500000",
          "194231.500000",
          "194311.437000",
          "194311.453000",
          "194311.453000",
          "194311.453000",
          "194311.453000",
          "194311.468000",
          "194311.468000",
          "194311.468000",
          "194311.484000",
          "194311.484000",
          "194311.484000",
          "194311.484000",
          "194311.484000",
          "194311.484000",
          "194311.484000",
          "194311.500000",
          "194311.500000",
          "194311.500000",
          "194311.500000",
          "194311.500000",
          "194351.437000",
          "194351.453000",
          "194351.453000",
          "194351.453000",
          "194351.453000",
          "194351.453000",
          "194351.453000",
          "194351.468000",
          "194351.468000",
          "194351.468000",
          "194351.468000",
          "194351.468000",
          "194351.468000",
          "194351.468000",
          "194351.484000",
          "194351.484000",
          "194351.484000",
          "194351.484000",
          "194351.484000",
          "194351.484000",
          "194431.437000",
          "194431.453000",
          "194431.453000",
          "194431.453000",
          "194431.453000",
          "194431.453000",
          "194431.453000",
          "194431.468000",
          "194431.468000",
          "194431.468000",
          "194431.468000",
          "194431.468000",
          "194431.468000",
          "194431.484000",
          "194431.484000",
          "194431.484000",
          "194431.484000",
          "194431.484000",
          "194431.484000",
          "194431.500000",
          "194502.921000",
          "194502.921000",
          "194502.921000",
          "194502.921000",
          "194502.921000",
          "194502.937000",
          "194502.937000",
          "194502.937000",
          "194502.937000",
          "194502.953000",
          "194502.953000",
          "194502.953000",
          "194502.953000",
          "194502.953000",
          "194502.968000",
          "194502.968000"
        ],
        "InstanceNumber": [
          1,
          2,
          3,
          4,
          5,
          6,
          7,
          8,
          9,
          10,
          11,
          12,
          13,
          14,
          15,
          16,
          17,
          18,
          19,
          20,
          21,
          22,
          23,
          24,
          25,
          26,
          27,
          28,
          29,
          30,
          31,
          32,
          33,
          34,
          35,
          36,
          37,
          38,
          39,
          40,
          41,
          42,
          43,
          44,
          45,
          46,
          47,
          48,
          49,
          50,
          51,
          52,
          53,
          54,
          55,
          56,
          57,
          58,
          59,
          60,
          61,
          62,
          63,
          64,
          65,
          66,
          67,
          68,
          69,
          70,
          71,
          72,
          73,
          74,
          75,
          76,
          77,
          78,
          79,
          80,
          81,
          82,
          83,
          84,
          85,
          86,
          87,
          88,
          89,
          90,
          91,
          92,
          93,
          94,
          95,
          96,
          97,
          98,
          99,
          100,
          101,
          102,
          103,
          104,
          105,
          106,
          107,
          108,
          109,
          110,
          111,
          112,
          113,
          114,
          115,
          116,
          117,
          118,
          119,
          120,
          121,
          122,
          123,
          124,
          125,
          126,
          127,
          128,
          129,
          130,
          131,
          132,
          133,
          134,
          135,
          136,
          137,
          138,
          139,
          140,
          141,
          142,
          143,
          144,
          145,
          146,
          147,
          148,
          149,
          150,
          151,
          152,
          153,
          154,
          155,
          156,
          157,
          158,
          159,
          160,
          161,
          162,
          163,
          164
        ],
        "WindowCenter": [
          966.0,
          965.0,
          967.0,
          967.0,
          967.0,
          966.0,
          967.0,
          967.0,
          967.0,
          967.0,
          966.0,
          966.0,
          965.0,
          967.0,
          966.0,
          965.0,
          964.0,
          965.0,
          966.0,
          967.0,
          966.0,
          966.0,
          966.0,
          967.0,
          967.0,
          966.0,
          967.0,
          968.0,
          966.0,
          966.0,
          966.0,
          966.0,
          966.0,
          966.0,
          967.0,
          966.0,
          965.0,
          965.0,
          966.0,
          966.0,
          967.0,
          968.0,
          968.0,
          966.0,
          965.0,
          966.0,
          967.0,
          967.0,
          967.0,
          967.0,
          967.0,
          968.0,
          969.0,
          967.0,
          966.0,
          966.0,
          967.0,
          966.0,
          966.0,
          966.0,
          967.0,
          967.0,
          967.0,
          966.0,
          967.0,
          967.0,
          967.0,
          968.0,
          967.0,
          965.0,
          965.0,
          965.0,
          965.0,
          967.0,
          967.0,
          967.0,
          967.0,
          967.0,
          966.0,
          967.0,
          967.0,
          968.0,
          967.0,
          966.0,
          967.0,
          967.0,
          967.0,
          967.0,
          966.0,
          967.0,
          969.0,
          968.0,
          968.0,
          969.0,
          968.0,
          967.0,
          967.0,
          966.0,
          966.0,
          965.0,
          965.0,
          965.0,
          965.0,
          964.0,
          964.0,
          965.0,
          966.0,
          967.0,
          967.0,
          968.0,
          967.0,
          967.0,
          968.0,
          966.0,
          966.0,
          966.0,
          966.0,
          966.0,
          967.0,
          968.0,
          969.0,
          969.0,
          968.0,
          967.0,
          968.0,
          968.0,
          968.0,
          966.0,
          966.0,
          967.0,
          967.0,
          966.0,
          966.0,
          966.0,
          965.0,
          965.0,
          965.0,
          966.0,
          967.0,
          968.0,
          968.0,
          967.0,
          967.0,
          966.0,
          966.0,
          966.0,
          967.0,
          967.0,
          967.0,
          967.0,
          967.0,
          967.0,
          968.0,
          968.0,
          968.0,
          968.0,
          967.0,
          968.0,
          969.0,
          970.0,
          971.0,
          970.0,
          968.0,
          967.0
        ],
        "WindowWidth": [
          2644.0,
          2647.0,
          2652.0,
          2653.0,
          2652.0,
          2651.0,
          2652.0,
          2657.0,
          2663.0,
          2662.0,
          2657.0,
          2653.0,
          2657.0,
          2659.0,
          2657.0,
          2651.0,
          2651.0,
          2654.0,
          2656.0,
          2653.0,
          2652.0,
          2650.0,
          2651.0,
          2650.0,
          2652.0,
          2654.0,
          2653.0,
          2650.0,
          2648.0,
          2649.0,
          2649.0,
          2647.0,
          2647.0,
          2647.0,
          2648.0,
          2649.0,
          2651.0,
          2652.0,
          2652.0,
          2659.0,
          2672.0,
          2674.0,
          2662.0,
          2655.0,
          2653.0,
          2658.0,
          2662.0,
          2661.0,
          2654.0,
          2649.0,
          2652.0,
          2656.0,
          2656.0,
          2653.0,
          2651.0,
          2652.0,
          2654.0,
          2651.0,
          2651.0,
          2654.0,
          2658.0,
          2657.0,
          2655.0,
          2654.0,
          2655.0,
          2661.0,
          2667.0,
          2669.0,
          2664.0,
          2657.0,
          2654.0,
          2655.0,
          2659.0,
          2657.0,
          2661.0,
          2666.0,
          2664.0,
          2655.0,
          2646.0,
          2649.0,
          2656.0,
          2654.0,
          2650.0,
          2650.0,
          2652.0,
          2657.0,
          2656.0,
          2653.0,
          2657.0,
          2666.0,
          2672.0,
          2674.0,
          2672.0,
          2676.0,
          2675.0,
          2665.0,
          2657.0,
          2655.0,
          2655.0,
          2654.0,
          2654.0,
          2652.0,
          2652.0,
          2652.0,
          2653.0,
          2656.0,
          2661.0,
          2664.0,
          2667.0,
          2665.0,
          2662.0,
          2659.0,
          2655.0,
          2654.0,
          2655.0,
          2653.0,
          2648.0,
          2648.0,
          2652.0,
          2658.0,
          2662.0,
          2659.0,
          2657.0,
          2657.0,
          2659.0,
          2660.0,
          2658.0,
          2658.0,
          2658.0,
          2660.0,
          2662.0,
          2663.0,
          2659.0,
          2657.0,
          2654.0,
          2651.0,
          2653.0,
          2658.0,
          2657.0,
          2654.0,
          2655.0,
          2656.0,
          2656.0,
          2655.0,
          2651.0,
          2649.0,
          2650.0,
          2652.0,
          2653.0,
