{
  "aor": 0.0008857317073170731,
  "aqi": 0.004307412804878049,
  "bids_meta": {
    "AcquisitionMatrixPE": 96,
    "AcquisitionNumber": 1,
    "AcquisitionTime": "17:21:5.487500",
    "BandwidthPerPixelPhaseEncode": 52.083,
    "BaseResolution": 96,
    "BodyPartExamined": "HEAD",
    "ConversionSoftware": "dcm2niix",
    "ConversionSoftwareVersion": "v1.0.20180622 GCC6.3.0",
    "DerivedVendorReportedEchoSpacing": 0.000600004,
    "DeviceSerialNumber": "18926",
    "DwellTime": 2.6e-06,
    "EchoTime": 0.025,
    "EffectiveEchoSpacing": 0.000200001,
    "FlipAngle": 50,
    "ImageOrientationPatientDICOM": [
      1,
      -2.05103e-10,
      0,
      2.05103e-10,
      1,
      0
    ],
    "ImageType": [
      "ORIGINAL",
      "PRIMARY",
      "M",
      "ND",
      "ECHO",
      "00",
      "MOSAIC"
    ],
    "InPlanePhaseEncodingDirectionDICOM": "ROW",
    "InstitutionName": "NIMH",
    "InstitutionalDepartmentName": "Department",
    "MRAcquisitionType": "2D",
    "MagneticFieldStrength": 6.98,
    "Manufacturer": "Siemens",
    "ManufacturersModelName": "Investigational_Device_7T",
    "Modality": "MR",
    "ParallelReductionFactorInPlane": 3,
    "PartialFourier": 1,
    "PatientPosition": "HFS",
    "PercentPhaseFOV": 100,
    "PhaseEncodingDirection": "i",
    "PhaseEncodingSteps": 94,
    "PhaseResolution": 1,
    "PixelBandwidth": 2003,
    "ProcedureStepDescription": "MRI_Procedure_Limited",
    "ProtocolName": "NIH_EPI_2.0iso_TR2_Run09",
    "PulseSequenceDetails": "%CustomerSeq%_inati_nih_epi",
    "ReceiveCoilName": "32Ch_Head_7T",
    "ReconMatrixPE": 96,
    "RepetitionTime": 2,
    "SAR": 0.0954305,
    "ScanningSequence": "EP",
    "SequenceName": "epfid2d1_96",
    "SequenceVariant": "SK",
    "SeriesDescription": "NIH_EPI_2.0iso_TR2_Run09",
    "SeriesNumber": 14,
    "ShimSetting": [
      -35,
      -33,
      1383,
      2505,
      128,
      80,
      532,
      -309
    ],
    "SliceThickness": 2,
    "SliceTiming": [
      1.0025,
      0,
      1.04,
      0.0375,
      1.0775,
      0.0725,
      1.115,
      0.11,
      1.1525,
      0.1475,
      1.19,
      0.185,
      1.225,
      0.2225,
      1.2625,
      0.26,
      1.3,
      0.2975,
      1.3375,
      0.335,
      1.375,
      0.37,
      1.4125,
      0.4075,
      1.45,
      0.445,
      1.4875,
      0.4825,
      1.5225,
      0.52,
      1.56,
      0.5575,
      1.5975,
      0.595,
      1.635,
      0.63,
      1.6725,
      0.6675,
      1.71,
      0.705,
      1.7475,
      0.7425,
      1.7825,
      0.78,
      1.82,
      0.8175,
      1.8575,
      0.855,
      1.895,
      0.8925,
      1.9325,
      0.9275,
      1.97,
      0.965
    ],
    "SoftwareVersions": "syngo_MR_B17",
    "SpacingBetweenSlices": 2,
    "StationName": "FMRIFD7T",
    "TaskName": "FullFovAttentionTask",
    "TotalReadoutTime": 0.0190001,
    "TxRefAmp": 302,
    "dataset": "ds001555",
    "dcmmeta_affine": [
      [
        -2.0,
        4.1020681296188855e-10,
        0.0,
        95.98538208007812
      ],
      [
        4.1020681296188855e-10,
        2.0,
        0.0,
        -68.37484741210938
      ],
      [
        0.0,
        0.0,
        1.9999998807907104,
        -17.773967742919922
      ],
      [
        0.0,
        0.0,
        0.0,
        1.0
      ]
    ],
    "dcmmeta_reorient_transform": [
      [
        0.0,
        -1.0,
        0.0,
        95.0
      ],
      [
        1.0,
        0.0,
        0.0,
        0.0
      ],
      [
        0.0,
        0.0,
        1.0,
        0.0
      ],
      [
        0.0,
        0.0,
        0.0,
        1.0
      ]
    ],
    "dcmmeta_shape": [
      96,
      96,
      54,
      164
    ],
    "dcmmeta_slice_dim": 2,
    "dcmmeta_version": 0.6,
    "global": {
      "const": {
        "AcquisitionMatrix": [
          0,
          96,
          96,
          0
        ],
        "Allergies": "No Known Allergies",
        "AngioFlag": "N",
        "BitsAllocated": 16,
        "BitsStored": 12,
        "BodyPartExamined": "HEAD",
        "Columns": 768,
        "EchoNumbers": 1,
        "EchoTime": 25.0,
        "EchoTrainLength": 1,
        "FlipAngle": 50.0,
        "HighBit": 11,
        "ImageOrientationPatient": [
          1.0,
          -2.051034e-10,
          0.0,
          2.051034e-10,
          1.0,
          0.0
        ],
        "ImagePositionPatient": [
          -767.98537955166,
          -793.62515624507,
          -17.77396774292
        ],
        "ImageType": [
          "ORIGINAL",
          "PRIMARY",
          "M",
          "ND",
          "ECHO_00",
          "MOSAIC"
        ],
        "ImagedNucleus": "1H",
        "ImagingFrequency": 297.204902,
        "InPlanePhaseEncodingDirection": "ROW",
        "LargestImagePixelValue": 4095,
        "MRAcquisitionType": "2D",
        "MagneticFieldStrength": 6.98,
        "Manufacturer": "SIEMENS",
        "ManufacturerModelName": "Investigational_Device_7T",
        "Modality": "MR",
        "NumberOfAverages": 1.0,
        "NumberOfPhaseEncodingSteps": 94,
        "PercentPhaseFieldOfView": 100.0,
        "PercentSampling": 100.0,
        "PerformedProcedureStepStartTime": "155403.794000",
        "PhotometricInterpretation": "MONOCHROME2",
        "PixelBandwidth": 2003.0,
        "PixelRepresentation": 0,
        "PixelSpacing": [
          2.0,
          2.0
        ],
        "PositionReferenceIndicator": "",
        "ProcedureCodeSequence": [
          {
            "CodeMeaning": "MRI Procedure Limited",
            "CodeValue": "MI01491",
            "CodingSchemeDesignator": "USA Standard",
            "ContextIdentifier": "4000131003"
          }
        ],
        "ProtocolName": "NIH_EPI_2.0iso_TR2_Run09",
        "ReferencedStudySequence": [
          {
            "ReferencedSOPClassUID": "1.2.840.10008.3.1.2.3.1",
            "ReferencedSOPInstanceUID": "1.2.840.113564.9.1.2787814059.53.2.5000096846"
          }
        ],
        "RepetitionTime": 2000.0,
        "RequestedProcedureCodeSequence": [
          {
            "CodeMeaning": "MRI Procedure Limited",
            "CodeValue": "MI01491",
            "CodingSchemeDesignator": "USA Standard",
            "ContextIdentifier": "4000131003"
          }
        ],
        "RequestingService": "NIMH Molecular Imaging Branch",
        "Rows": 768,
        "SAR": 0.0954305326624,
        "SamplesPerPixel": 1,
        "ScanningSequence": "EP",
        "SequenceName": "epfid2d1_96",
        "SequenceVariant": "SK",
        "SeriesDescription": "NIH_EPI_2.0iso_TR2_Run09",
        "SeriesNumber": 14,
        "SliceLocation": -17.77396774292,
        "SliceThickness": 2.0,
        "SmallestImagePixelValue": 0,
        "SoftwareVersions": "syngo MR B17",
        "SpacingBetweenSlices": 1.9999999280246,
        "TransmitCoilName": "32Ch_Head_7T",
        "VariableFlipAngleFlag": "N",
        "WindowCenterWidthExplanation": "Algo1",
        "dBdt": 0.0
      },
      "slices": {}
    },
    "modality": "bold",
    "run_id": 11,
    "session_id": "08",
    "subject_id": "003",
    "task_id": "FullFovAttentionTask",
    "time": {
      "samples": {
        "AcquisitionNumber": [
          1,
          2,
          3,
          4,
          5,
          6,
          7,
          8,
          9,
          10,
          11,
          12,
          13,
          14,
          15,
          16,
          17,
          18,
          19,
          20,
          21,
          22,
          23,
          24,
          25,
          26,
          27,
          28,
          29,
          30,
          31,
          32,
          33,
          34,
          35,
          36,
          37,
          38,
          39,
          40,
          41,
          42,
          43,
          44,
          45,
          46,
          47,
          48,
          49,
          50,
          51,
          52,
          53,
          54,
          55,
          56,
          57,
          58,
          59,
          60,
          61,
          62,
          63,
          64,
          65,
          66,
          67,
          68,
          69,
          70,
          71,
          72,
          73,
          74,
          75,
          76,
          77,
          78,
          79,
          80,
          81,
          82,
          83,
          84,
          85,
          86,
          87,
          88,
          89,
          90,
          91,
          92,
          93,
          94,
          95,
          96,
          97,
          98,
          99,
          100,
          101,
          102,
          103,
          104,
          105,
          106,
          107,
          108,
          109,
          110,
          111,
          112,
          113,
          114,
          115,
          116,
          117,
          118,
          119,
          120,
          121,
          122,
          123,
          124,
          125,
          126,
          127,
          128,
          129,
          130,
          131,
          132,
          133,
          134,
          135,
          136,
          137,
          138,
          139,
          140,
          141,
          142,
          143,
          144,
          145,
          146,
          147,
          148,
          149,
          150,
          151,
          152,
          153,
          154,
          155,
          156,
          157,
          158,
          159,
          160,
          161,
          162,
          163,
          164
        ],
        "AcquisitionTime": [
          "172105.487500",
          "172109.505000",
          "172111.512500",
          "172113.520000",
          "172115.527500",
          "172117.535000",
          "172119.545000",
          "172121.552500",
          "172123.560000",
          "172125.567500",
          "172127.577500",
          "172129.585000",
          "172131.592500",
          "172133.600000",
          "172135.607500",
          "172137.617500",
          "172139.625000",
          "172141.632500",
          "172143.640000",
          "172145.647500",
          "172147.657500",
          "172149.665000",
          "172151.672500",
          "172153.680000",
          "172155.690000",
          "172157.697500",
          "172159.705000",
          "172201.712500",
          "172203.720000",
          "172205.730000",
          "172207.737500",
          "172209.745000",
          "172211.752500",
          "172213.760000",
          "172215.770000",
          "172217.777500",
          "172219.785000",
          "172221.792500",
          "172223.800000",
          "172225.810000",
          "172227.817500",
          "172229.825000",
          "172231.832500",
          "172233.842500",
          "172235.850000",
          "172237.857500",
          "172239.865000",
          "172241.872500",
          "172243.882500",
          "172245.890000",
          "172247.897500",
          "172249.905000",
          "172251.912500",
          "172253.922500",
          "172255.930000",
          "172257.937500",
          "172259.945000",
          "172301.955000",
          "172303.962500",
          "172305.970000",
          "172307.977500",
          "172309.985000",
          "172311.995000",
          "172314.002500",
          "172316.010000",
          "172318.017500",
          "172320.025000",
          "172322.035000",
          "172324.042500",
          "172326.050000",
          "172328.057500",
          "172330.067500",
          "172332.075000",
          "172334.082500",
          "172336.090000",
          "172338.097500",
          "172340.107500",
          "172342.115000",
          "172344.122500",
          "172346.130000",
          "172348.137500",
          "172350.147500",
          "172352.155000",
          "172354.162500",
          "172356.170000",
          "172358.177500",
          "172400.187500",
          "172402.195000",
          "172404.202500",
          "172406.210000",
          "172408.220000",
          "172410.227500",
          "172412.235000",
          "172414.242500",
          "172416.250000",
          "172418.260000",
          "172420.267500",
          "172422.275000",
          "172424.282500",
          "172426.290000",
          "172428.300000",
          "172430.307500",
          "172432.315000",
          "172434.322500",
          "172436.332500",
          "172438.340000",
          "172440.347500",
          "172442.355000",
          "172444.362500",
          "172446.372500",
          "172448.380000",
          "172450.387500",
          "172452.395000",
          "172454.402500",
          "172456.412500",
          "172458.420000",
          "172500.427500",
          "172502.435000",
          "172504.445000",
          "172506.452500",
          "172508.460000",
          "172510.467500",
          "172512.475000",
          "172514.485000",
          "172516.492500",
          "172518.500000",
          "172520.507500",
          "172522.515000",
          "172524.525000",
          "172526.532500",
          "172528.540000",
          "172530.547500",
          "172532.555000",
          "172534.565000",
          "172536.572500",
          "172538.580000",
          "172540.587500",
          "172542.597500",
          "172544.605000",
          "172546.612500",
          "172548.620000",
          "172550.627500",
          "172552.637500",
          "172554.645000",
          "172556.652500",
          "172558.660000",
          "172600.667500",
          "172602.677500",
          "172604.685000",
          "172606.692500",
          "172608.700000",
          "172610.710000",
          "172612.717500",
          "172614.725000",
          "172616.732500",
          "172618.740000",
          "172620.750000",
          "172622.757500",
          "172624.765000",
          "172626.772500",
          "172628.780000",
          "172630.790000",
          "172632.797500",
          "172634.805000"
        ],
        "ContentTime": [
          "172205.263000",
          "172205.263000",
          "172205.263000",
          "172205.278000",
          "172205.278000",
          "172205.278000",
          "172205.278000",
          "172205.294000",
          "172205.294000",
          "172205.294000",
          "172205.294000",
          "172205.309000",
          "172205.309000",
          "172205.309000",
          "172205.309000",
          "172205.309000",
          "172205.309000",
          "172205.325000",
          "172205.325000",
          "172205.325000",
          "172205.325000",
          "172205.325000",
          "172205.325000",
          "172205.341000",
          "172205.341000",
          "172205.341000",
          "172205.356000",
          "172205.356000",
          "172245.247000",
          "172245.247000",
          "172245.263000",
          "172245.263000",
          "172245.263000",
          "172245.278000",
          "172245.278000",
          "172245.278000",
          "172245.278000",
          "172245.278000",
          "172245.278000",
          "172245.294000",
          "172245.294000",
          "172245.294000",
          "172245.309000",
          "172245.309000",
          "172245.309000",
          "172245.309000",
          "172245.325000",
          "172245.325000",
          "172305.247000",
          "172305.247000",
          "172305.247000",
          "172305.247000",
          "172305.263000",
          "172305.263000",
          "172305.263000",
          "172305.263000",
          "172305.278000",
          "172305.278000",
          "172345.247000",
          "172345.247000",
          "172345.247000",
          "172345.263000",
          "172345.263000",
          "172345.263000",
          "172345.263000",
          "172345.263000",
          "172345.278000",
          "172345.278000",
          "172345.278000",
          "172345.294000",
          "172345.294000",
          "172345.294000",
          "172345.294000",
          "172345.294000",
          "172345.294000",
          "172345.294000",
          "172345.309000",
          "172345.309000",
          "172425.247000",
          "172425.247000",
          "172425.247000",
          "172425.247000",
          "172425.263000",
          "172425.263000",
          "172425.263000",
          "172425.263000",
          "172425.263000",
          "172425.263000",
          "172425.263000",
          "172425.278000",
          "172425.278000",
          "172425.294000",
          "172425.294000",
          "172425.294000",
          "172425.294000",
          "172425.309000",
          "172425.309000",
          "172425.309000",
          "172505.247000",
          "172505.263000",
          "172505.263000",
          "172505.263000",
          "172505.263000",
          "172505.263000",
          "172505.263000",
          "172505.278000",
          "172505.278000",
          "172505.278000",
          "172505.278000",
          "172505.278000",
          "172505.278000",
          "172505.294000",
          "172505.294000",
          "172505.294000",
          "172505.309000",
          "172505.309000",
          "172505.309000",
          "172505.309000",
          "172545.247000",
          "172545.263000",
          "172545.263000",
          "172545.263000",
          "172545.278000",
          "172545.278000",
          "172545.278000",
          "172545.294000",
          "172545.294000",
          "172545.294000",
          "172545.294000",
          "172545.294000",
          "172545.294000",
          "172545.309000",
          "172545.309000",
          "172545.309000",
          "172545.309000",
          "172545.309000",
          "172545.309000",
          "172545.325000",
          "172625.247000",
          "172625.247000",
          "172625.247000",
          "172625.247000",
          "172625.263000",
          "172625.263000",
          "172625.263000",
          "172625.263000",
          "172625.294000",
          "172625.294000",
          "172625.294000",
          "172625.294000",
          "172625.309000",
          "172625.309000",
          "172625.309000",
          "172625.309000",
          "172625.309000",
          "172625.325000",
          "172625.325000",
          "172625.325000",
          "172635.950000",
          "172635.966000",
          "172635.966000",
          "172635.981000",
          "172635.981000",
          "172635.981000"
        ],
        "InstanceCreationTime": [
          "172205.263000",
          "172205.263000",
          "172205.263000",
          "172205.278000",
          "172205.278000",
          "172205.278000",
          "172205.278000",
          "172205.294000",
          "172205.294000",
          "172205.294000",
          "172205.294000",
          "172205.309000",
          "172205.309000",
          "172205.309000",
          "172205.309000",
          "172205.309000",
          "172205.309000",
          "172205.325000",
          "172205.325000",
          "172205.325000",
          "172205.325000",
          "172205.325000",
          "172205.325000",
          "172205.341000",
          "172205.341000",
          "172205.341000",
          "172205.356000",
          "172205.356000",
          "172245.247000",
          "172245.247000",
          "172245.263000",
          "172245.263000",
          "172245.263000",
          "172245.278000",
          "172245.278000",
          "172245.278000",
          "172245.278000",
          "172245.278000",
          "172245.278000",
          "172245.294000",
          "172245.294000",
          "172245.294000",
          "172245.309000",
          "172245.309000",
          "172245.309000",
          "172245.309000",
          "172245.325000",
          "172245.325000",
          "172305.247000",
          "172305.247000",
          "172305.247000",
          "172305.247000",
          "172305.263000",
          "172305.263000",
          "172305.263000",
          "172305.263000",
          "172305.278000",
          "172305.278000",
          "172345.247000",
          "172345.247000",
          "172345.247000",
          "172345.263000",
          "172345.263000",
          "172345.263000",
          "172345.263000",
          "172345.263000",
          "172345.278000",
          "172345.278000",
          "172345.278000",
          "172345.294000",
          "172345.294000",
          "172345.294000",
          "172345.294000",
          "172345.294000",
          "172345.294000",
          "172345.294000",
          "172345.309000",
          "172345.309000",
          "172425.247000",
          "172425.247000",
          "172425.247000",
          "172425.247000",
          "172425.263000",
          "172425.263000",
          "172425.263000",
          "172425.263000",
          "172425.263000",
          "172425.263000",
          "172425.263000",
          "172425.278000",
          "172425.278000",
          "172425.294000",
          "172425.294000",
          "172425.294000",
          "172425.294000",
          "172425.309000",
          "172425.309000",
          "172425.309000",
          "172505.247000",
          "172505.263000",
          "172505.263000",
          "172505.263000",
          "172505.263000",
          "172505.263000",
          "172505.263000",
          "172505.278000",
          "172505.278000",
          "172505.278000",
          "172505.278000",
          "172505.278000",
          "172505.278000",
          "172505.294000",
          "172505.294000",
          "172505.294000",
          "172505.309000",
          "172505.309000",
          "172505.309000",
          "172505.309000",
          "172545.247000",
          "172545.263000",
          "172545.263000",
          "172545.263000",
          "172545.278000",
          "172545.278000",
          "172545.278000",
          "172545.294000",
          "172545.294000",
          "172545.294000",
          "172545.294000",
          "172545.294000",
          "172545.294000",
          "172545.309000",
          "172545.309000",
          "172545.309000",
          "172545.309000",
          "172545.309000",
          "172545.309000",
          "172545.325000",
          "172625.247000",
          "172625.247000",
          "172625.247000",
          "172625.247000",
          "172625.263000",
          "172625.263000",
          "172625.263000",
          "172625.263000",
          "172625.294000",
          "172625.294000",
          "172625.294000",
          "172625.294000",
          "172625.309000",
          "172625.309000",
          "172625.309000",
          "172625.309000",
          "172625.309000",
          "172625.325000",
          "172625.325000",
          "172625.325000",
          "172635.950000",
          "172635.966000",
          "172635.966000",
          "172635.981000",
          "172635.981000",
          "172635.981000"
        ],
        "InstanceNumber": [
          1,
          2,
          3,
          4,
          5,
          6,
          7,
          8,
          9,
          10,
          11,
          12,
          13,
          14,
          15,
          16,
          17,
          18,
          19,
          20,
          21,
          22,
          23,
          24,
          25,
          26,
          27,
          28,
          29,
          30,
          31,
          32,
          33,
          34,
          35,
          36,
          37,
          38,
          39,
          40,
          41,
          42,
          43,
          44,
          45,
          46,
          47,
          48,
          49,
          50,
          51,
          52,
          53,
          54,
          55,
          56,
          57,
          58,
          59,
          60,
          61,
          62,
          63,
          64,
          65,
          66,
          67,
          68,
          69,
          70,
          71,
          72,
          73,
          74,
          75,
          76,
          77,
          78,
          79,
          80,
          81,
          82,
          83,
          84,
          85,
          86,
          87,
          88,
          89,
          90,
          91,
          92,
          93,
          94,
          95,
          96,
          97,
          98,
          99,
          100,
          101,
          102,
          103,
          104,
          105,
          106,
          107,
          108,
          109,
          110,
          111,
          112,
          113,
          114,
          115,
          116,
          117,
          118,
          119,
          120,
          121,
          122,
          123,
          124,
          125,
          126,
          127,
          128,
          129,
          130,
          131,
          132,
          133,
          134,
          135,
          136,
          137,
          138,
          139,
          140,
          141,
          142,
          143,
          144,
          145,
          146,
          147,
          148,
          149,
          150,
          151,
          152,
          153,
          154,
          155,
          156,
          157,
          158,
          159,
          160,
          161,
          162,
          163,
          164
        ],
        "WindowCenter": [
          985.0,
          984.0,
          985.0,
          984.0,
          984.0,
          985.0,
          984.0,
          984.0,
          984.0,
          984.0,
          984.0,
          983.0,
          983.0,
          983.0,
          983.0,
          984.0,
          984.0,
          984.0,
          984.0,
          984.0,
          984.0,
          984.0,
          984.0,
          984.0,
          984.0,
          983.0,
          983.0,
          984.0,
          984.0,
          984.0,
          983.0,
          983.0,
          985.0,
          985.0,
          983.0,
          982.0,
          985.0,
          985.0,
          984.0,
          984.0,
          984.0,
          984.0,
          984.0,
          985.0,
          985.0,
          984.0,
          985.0,
          984.0,
          984.0,
          983.0,
          983.0,
          985.0,
          985.0,
          984.0,
          983.0,
          983.0,
          984.0,
          985.0,
          983.0,
          983.0,
          983.0,
          983.0,
          984.0,
          984.0,
          983.0,
          983.0,
          984.0,
          983.0,
          983.0,
          984.0,
          984.0,
          984.0,
          983.0,
          983.0,
          983.0,
          984.0,
          983.0,
          983.0,
          984.0,
          984.0,
          983.0,
          983.0,
          983.0,
          983.0,
          983.0,
          983.0,
          983.0,
          984.0,
          984.0,
          983.0,
          983.0,
          983.0,
          984.0,
          983.0,
          983.0,
          984.0,
          983.0,
          983.0,
          983.0,
          982.0,
          982.0,
          983.0,
          983.0,
          981.0,
          982.0,
          981.0,
          981.0,
          982.0,
          982.0,
          982.0,
          983.0,
          982.0,
          982.0,
          983.0,
          983.0,
          983.0,
          983.0,
          983.0,
          984.0,
          984.0,
          983.0,
          983.0,
          982.0,
          983.0,
          983.0,
          983.0,
          982.0,
          981.0,
          981.0,
          982.0,
          982.0,
          982.0,
          982.0,
          982.0,
          982.0,
          982.0,
          983.0,
          982.0,
          982.0,
          982.0,
          982.0,
          983.0,
          984.0,
          984.0,
          983.0,
          983.0,
          983.0,
          984.0,
          984.0,
          983.0,
          981.0,
          982.0,
          982.0,
          982.0,
          982.0,
          982.0,
          982.0,
          983.0,
          982.0,
          983.0,
          983.0,
          982.0,
          981.0,
          982.0
        ],
        "WindowWidth": [
          2628.0,
          2628.0,
          2627.0,
          2627.0,
          2625.0,
          2624.0,
          2628.0,
          2631.0,
          2633.0,
          2631.0,
          2630.0,
          2633.0,
          2629.0,
          2624.0,
          2624.0,
          2625.0,
          2627.0,
          2625.0,
          2622.0,
          2621.0,
          2623.0,
          2620.0,
          2618.0,
          2621.0,
          2622.0,
          2622.0,
          2622.0,
          2625.0,
          2625.0,
          2620.0,
          2618.0,
          2624.0,
          2634.0,
          2627.0,
          2620.0,
          2623.0,
          2632.0,
          2632.0,
          2630.0,
          2630.0,
          2630.0,
          2631.0,
          2632.0,
          2630.0,
          2632.0,
          2635.0,
          2637.0,
          2633.0,
          2626.0,
          2623.0,
          2626.0,
          2630.0,
          2628.0,
          2626.0,
          2622.0,
          2619.0,
          2624.0,
          2630.0,
          2626.0,
          2625.0,
          2625.0,
          2626.0,
          2628.0,
          2627.0,
          2627.0,
          2627.0,
          2630.0,
          2630.0,
          2627.0,
          2626.0,
          2630.0,
          2630.0,
          2628.0,
          2627.0,
          2626.0,
          2627.0,
          2626.0,
          2623.0,
          2622.0,
          2621.0,
          2621.0,
          2620.0,
          2620.0,
          2620.0,
          2620.0,
          2620.0,
          2621.0,
          2625.0,
          2626.0,
          2622.0,
          2622.0,
          2624.0,
          2623.0,
          2624.0,
          2623.0,
          2624.0,
          2627.0,
          2630.0,
          2625.0,
          2624.0,
