{
  "aor": 0.0012419512195121951,
  "aqi": 0.00427807243902439,
  "bids_meta": {
    "AcquisitionMatrixPE": 96,
    "AcquisitionNumber": 1,
    "AcquisitionTime": "16:31:40.702500",
    "BandwidthPerPixelPhaseEncode": 52.083,
    "BaseResolution": 96,
    "BodyPartExamined": "HEAD",
    "ConversionSoftware": "dcm2niix",
    "ConversionSoftwareVersion": "v1.0.20180622 GCC6.3.0",
    "DerivedVendorReportedEchoSpacing": 0.000600004,
    "DeviceSerialNumber": "18926",
    "DwellTime": 2.6e-06,
    "EchoTime": 0.025,
    "EffectiveEchoSpacing": 0.000200001,
    "FlipAngle": 50,
    "ImageOrientationPatientDICOM": [
      1,
      -2.05103e-10,
      0,
      2.05103e-10,
      1,
      0
    ],
    "ImageType": [
      "ORIGINAL",
      "PRIMARY",
      "M",
      "ND",
      "ECHO",
      "00",
      "MOSAIC"
    ],
    "InPlanePhaseEncodingDirectionDICOM": "ROW",
    "InstitutionName": "NIMH",
    "InstitutionalDepartmentName": "Department",
    "MRAcquisitionType": "2D",
    "MagneticFieldStrength": 6.98,
    "Manufacturer": "Siemens",
    "ManufacturersModelName": "Investigational_Device_7T",
    "Modality": "MR",
    "ParallelReductionFactorInPlane": 3,
    "PartialFourier": 1,
    "PatientPosition": "HFS",
    "PercentPhaseFOV": 100,
    "PhaseEncodingDirection": "i",
    "PhaseEncodingSteps": 94,
    "PhaseResolution": 1,
    "PixelBandwidth": 2003,
    "ProcedureStepDescription": "MRI_Procedure_Limited",
    "ProtocolName": "NIH_EPI_2.0iso_TR2_Run02",
    "PulseSequenceDetails": "%CustomerSeq%_inati_nih_epi",
    "ReceiveCoilName": "32Ch_Head_7T",
    "ReconMatrixPE": 96,
    "RepetitionTime": 2,
    "SAR": 0.0954305,
    "ScanningSequence": "EP",
    "SequenceName": "epfid2d1_96",
    "SequenceVariant": "SK",
    "SeriesDescription": "NIH_EPI_2.0iso_TR2_Run02",
    "SeriesNumber": 7,
    "ShimSetting": [
      -35,
      -33,
      1383,
      2505,
      128,
      80,
      532,
      -309
    ],
    "SliceThickness": 2,
    "SliceTiming": [
      1.005,
      0,
      1.0425,
      0.0375,
      1.08,
      0.075,
      1.1175,
      0.1125,
      1.1525,
      0.15,
      1.19,
      0.1875,
      1.2275,
      0.225,
      1.265,
      0.2625,
      1.3025,
      0.2975,
      1.34,
      0.335,
      1.3775,
      0.3725,
      1.415,
      0.41,
      1.45,
      0.4475,
      1.4875,
      0.485,
      1.525,
      0.5225,
      1.5625,
      0.56,
      1.6,
      0.595,
      1.6375,
      0.6325,
      1.675,
      0.67,
      1.7125,
      0.7075,
      1.7475,
      0.745,
      1.785,
      0.7825,
      1.8225,
      0.82,
      1.86,
      0.8575,
      1.8975,
      0.8925,
      1.935,
      0.93,
      1.9725,
      0.9675
    ],
    "SoftwareVersions": "syngo_MR_B17",
    "SpacingBetweenSlices": 2,
    "StationName": "FMRIFD7T",
    "TaskName": "FullFovAttentionTask",
    "TotalReadoutTime": 0.0190001,
    "TxRefAmp": 302,
    "dataset": "ds001555",
    "dcmmeta_affine": [
      [
        -2.0,
        4.1020681296188855e-10,
        0.0,
        95.98538208007812
      ],
      [
        4.1020681296188855e-10,
        2.0,
        0.0,
        -68.37484741210938
      ],
      [
        0.0,
        0.0,
        1.9999998807907104,
        -17.773967742919922
      ],
      [
        0.0,
        0.0,
        0.0,
        1.0
      ]
    ],
    "dcmmeta_reorient_transform": [
      [
        0.0,
        -1.0,
        0.0,
        95.0
      ],
      [
        1.0,
        0.0,
        0.0,
        0.0
      ],
      [
        0.0,
        0.0,
        1.0,
        0.0
      ],
      [
        0.0,
        0.0,
        0.0,
        1.0
      ]
    ],
    "dcmmeta_shape": [
      96,
      96,
      54,
      164
    ],
    "dcmmeta_slice_dim": 2,
    "dcmmeta_version": 0.6,
    "global": {
      "const": {
        "AcquisitionMatrix": [
          0,
          96,
          96,
          0
        ],
        "Allergies": "No Known Allergies",
        "AngioFlag": "N",
        "BitsAllocated": 16,
        "BitsStored": 12,
        "BodyPartExamined": "HEAD",
        "Columns": 768,
        "EchoNumbers": 1,
        "EchoTime": 25.0,
        "EchoTrainLength": 1,
        "FlipAngle": 50.0,
        "HighBit": 11,
        "ImageOrientationPatient": [
          1.0,
          -2.051034e-10,
          0.0,
          2.051034e-10,
          1.0,
          0.0
        ],
        "ImagePositionPatient": [
          -767.98537955166,
          -793.62515624507,
          -17.77396774292
        ],
        "ImageType": [
          "ORIGINAL",
          "PRIMARY",
          "M",
          "ND",
          "ECHO_00",
          "MOSAIC"
        ],
        "ImagedNucleus": "1H",
        "ImagingFrequency": 297.204758,
        "InPlanePhaseEncodingDirection": "ROW",
        "LargestImagePixelValue": 4095,
        "MRAcquisitionType": "2D",
        "MagneticFieldStrength": 6.98,
        "Manufacturer": "SIEMENS",
        "ManufacturerModelName": "Investigational_Device_7T",
        "Modality": "MR",
        "NumberOfAverages": 1.0,
        "NumberOfPhaseEncodingSteps": 94,
        "PercentPhaseFieldOfView": 100.0,
        "PercentSampling": 100.0,
        "PerformedProcedureStepStartTime": "155403.794000",
        "PhotometricInterpretation": "MONOCHROME2",
        "PixelBandwidth": 2003.0,
        "PixelRepresentation": 0,
        "PixelSpacing": [
          2.0,
          2.0
        ],
        "PositionReferenceIndicator": "",
        "ProcedureCodeSequence": [
          {
            "CodeMeaning": "MRI Procedure Limited",
            "CodeValue": "MI01491",
            "CodingSchemeDesignator": "USA Standard",
            "ContextIdentifier": "4000131003"
          }
        ],
        "ProtocolName": "NIH_EPI_2.0iso_TR2_Run02",
        "ReferencedStudySequence": [
          {
            "ReferencedSOPClassUID": "1.2.840.10008.3.1.2.3.1",
            "ReferencedSOPInstanceUID": "1.2.840.113564.9.1.2787814059.53.2.5000096846"
          }
        ],
        "RepetitionTime": 2000.0,
        "RequestedProcedureCodeSequence": [
          {
            "CodeMeaning": "MRI Procedure Limited",
            "CodeValue": "MI01491",
            "CodingSchemeDesignator": "USA Standard",
            "ContextIdentifier": "4000131003"
          }
        ],
        "RequestingService": "NIMH Molecular Imaging Branch",
        "Rows": 768,
        "SAR": 0.0954305326624,
        "SamplesPerPixel": 1,
        "ScanningSequence": "EP",
        "SequenceName": "epfid2d1_96",
        "SequenceVariant": "SK",
        "SeriesDescription": "NIH_EPI_2.0iso_TR2_Run02",
        "SeriesNumber": 7,
        "SliceLocation": -17.77396774292,
        "SliceThickness": 2.0,
        "SmallestImagePixelValue": 0,
        "SoftwareVersions": "syngo MR B17",
        "SpacingBetweenSlices": 1.9999999280246,
        "TransmitCoilName": "32Ch_Head_7T",
        "VariableFlipAngleFlag": "N",
        "WindowCenterWidthExplanation": "Algo1",
        "dBdt": 0.0
      },
      "slices": {}
    },
    "modality": "bold",
    "run_id": 4,
    "session_id": "08",
    "subject_id": "003",
    "task_id": "FullFovAttentionTask",
    "time": {
      "samples": {
        "AcquisitionNumber": [
          1,
          2,
          3,
          4,
          5,
          6,
          7,
          8,
          9,
          10,
          11,
          12,
          13,
          14,
          15,
          16,
          17,
          18,
          19,
          20,
          21,
          22,
          23,
          24,
          25,
          26,
          27,
          28,
          29,
          30,
          31,
          32,
          33,
          34,
          35,
          36,
          37,
          38,
          39,
          40,
          41,
          42,
          43,
          44,
          45,
          46,
          47,
          48,
          49,
          50,
          51,
          52,
          53,
          54,
          55,
          56,
          57,
          58,
          59,
          60,
          61,
          62,
          63,
          64,
          65,
          66,
          67,
          68,
          69,
          70,
          71,
          72,
          73,
          74,
          75,
          76,
          77,
          78,
          79,
          80,
          81,
          82,
          83,
          84,
          85,
          86,
          87,
          88,
          89,
          90,
          91,
          92,
          93,
          94,
          95,
          96,
          97,
          98,
          99,
          100,
          101,
          102,
          103,
          104,
          105,
          106,
          107,
          108,
          109,
          110,
          111,
          112,
          113,
          114,
          115,
          116,
          117,
          118,
          119,
          120,
          121,
          122,
          123,
          124,
          125,
          126,
          127,
          128,
          129,
          130,
          131,
          132,
          133,
          134,
          135,
          136,
          137,
          138,
          139,
          140,
          141,
          142,
          143,
          144,
          145,
          146,
          147,
          148,
          149,
          150,
          151,
          152,
          153,
          154,
          155,
          156,
          157,
          158,
          159,
          160,
          161,
          162,
          163,
          164
        ],
        "AcquisitionTime": [
          "163140.702500",
          "163144.717500",
          "163146.727500",
          "163148.735000",
          "163150.742500",
          "163152.750000",
          "163154.757500",
          "163156.767500",
          "163158.775000",
          "163200.782500",
          "163202.790000",
          "163204.800000",
          "163206.807500",
          "163208.815000",
          "163210.822500",
          "163212.830000",
          "163214.840000",
          "163216.847500",
          "163218.855000",
          "163220.862500",
          "163222.870000",
          "163224.880000",
          "163226.887500",
          "163228.895000",
          "163230.902500",
          "163232.912500",
          "163234.920000",
          "163236.927500",
          "163238.935000",
          "163240.942500",
          "163242.952500",
          "163244.960000",
          "163246.967500",
          "163248.975000",
          "163250.982500",
          "163252.992500",
          "163255.000000",
          "163257.007500",
          "163259.015000",
          "163301.025000",
          "163303.032500",
          "163305.040000",
          "163307.047500",
          "163309.055000",
          "163311.065000",
          "163313.072500",
          "163315.080000",
          "163317.087500",
          "163319.095000",
          "163321.105000",
          "163323.112500",
          "163325.120000",
          "163327.127500",
          "163329.135000",
          "163331.145000",
          "163333.152500",
          "163335.160000",
          "163337.167500",
          "163339.177500",
          "163341.185000",
          "163343.192500",
          "163345.200000",
          "163347.207500",
          "163349.217500",
          "163351.225000",
          "163353.232500",
          "163355.240000",
          "163357.247500",
          "163359.257500",
          "163401.265000",
          "163403.272500",
          "163405.280000",
          "163407.290000",
          "163409.297500",
          "163411.305000",
          "163413.312500",
          "163415.320000",
          "163417.330000",
          "163419.337500",
          "163421.345000",
          "163423.352500",
          "163425.360000",
          "163427.370000",
          "163429.377500",
          "163431.385000",
          "163433.392500",
          "163435.402500",
          "163437.410000",
          "163439.417500",
          "163441.425000",
          "163443.432500",
          "163445.442500",
          "163447.450000",
          "163449.457500",
          "163451.465000",
          "163453.472500",
          "163455.482500",
          "163457.490000",
          "163459.497500",
          "163501.505000",
          "163503.512500",
          "163505.522500",
          "163507.530000",
          "163509.537500",
          "163511.545000",
          "163513.555000",
          "163515.562500",
          "163517.570000",
          "163519.577500",
          "163521.585000",
          "163523.595000",
          "163525.602500",
          "163527.610000",
          "163529.617500",
          "163531.625000",
          "163533.635000",
          "163535.642500",
          "163537.650000",
          "163539.657500",
          "163541.667500",
          "163543.675000",
          "163545.682500",
          "163547.690000",
          "163549.697500",
          "163551.707500",
          "163553.715000",
          "163555.722500",
          "163557.730000",
          "163559.737500",
          "163601.747500",
          "163603.755000",
          "163605.762500",
          "163607.770000",
          "163609.780000",
          "163611.787500",
          "163613.795000",
          "163615.802500",
          "163617.810000",
          "163619.820000",
          "163621.827500",
          "163623.835000",
          "163625.842500",
          "163627.850000",
          "163629.860000",
          "163631.867500",
          "163633.875000",
          "163635.882500",
          "163637.890000",
          "163639.900000",
          "163641.907500",
          "163643.915000",
          "163645.922500",
          "163647.932500",
          "163649.940000",
          "163651.947500",
          "163653.955000",
          "163655.962500",
          "163657.972500",
          "163659.980000",
          "163701.987500",
          "163703.995000",
          "163706.002500",
          "163708.012500",
          "163710.020000"
        ],
        "ContentTime": [
          "163237.591000",
          "163237.606000",
          "163237.606000",
          "163237.606000",
          "163237.606000",
          "163237.606000",
          "163237.606000",
          "163237.622000",
          "163237.622000",
          "163237.622000",
          "163237.622000",
          "163237.638000",
          "163237.638000",
          "163237.638000",
          "163237.638000",
          "163237.638000",
          "163237.638000",
          "163237.653000",
          "163237.653000",
          "163237.653000",
          "163237.653000",
          "163237.653000",
          "163237.653000",
          "163237.669000",
          "163237.669000",
          "163237.669000",
          "163237.669000",
          "163317.591000",
          "163317.591000",
          "163317.591000",
          "163317.591000",
          "163317.591000",
          "163317.591000",
          "163317.606000",
          "163317.606000",
          "163317.622000",
          "163317.622000",
          "163317.622000",
          "163317.622000",
          "163317.622000",
          "163317.622000",
          "163317.638000",
          "163317.638000",
          "163317.638000",
          "163317.653000",
          "163317.653000",
          "163317.653000",
          "163357.591000",
          "163357.591000",
          "163357.591000",
          "163357.591000",
          "163357.591000",
          "163357.606000",
          "163357.606000",
          "163357.606000",
          "163357.606000",
          "163357.606000",
          "163357.606000",
          "163357.622000",
          "163357.622000",
          "163357.638000",
          "163357.638000",
          "163357.638000",
          "163357.638000",
          "163357.638000",
          "163357.638000",
          "163357.653000",
          "163437.591000",
          "163437.591000",
          "163437.591000",
          "163437.591000",
          "163437.591000",
          "163437.606000",
          "163437.606000",
          "163437.606000",
          "163437.606000",
          "163437.622000",
          "163437.622000",
          "163437.622000",
          "163437.622000",
          "163437.622000",
          "163437.622000",
          "163437.638000",
          "163437.653000",
          "163437.653000",
          "163437.653000",
          "163437.653000",
          "163517.591000",
          "163517.591000",
          "163517.591000",
          "163517.606000",
          "163517.606000",
          "163517.606000",
          "163517.606000",
          "163517.606000",
          "163517.622000",
          "163517.622000",
          "163517.622000",
          "163517.622000",
          "163517.622000",
          "163517.622000",
          "163517.638000",
          "163517.638000",
          "163517.638000",
          "163517.638000",
          "163517.638000",
          "163517.653000",
          "163557.591000",
          "163557.591000",
          "163557.591000",
          "163557.591000",
          "163557.591000",
          "163557.606000",
          "163557.606000",
          "163557.606000",
          "163557.622000",
          "163557.622000",
          "163557.622000",
          "163557.638000",
          "163557.638000",
          "163557.638000",
          "163557.638000",
          "163557.638000",
          "163557.638000",
          "163557.653000",
          "163557.653000",
          "163557.653000",
          "163637.591000",
          "163637.591000",
          "163637.591000",
          "163637.591000",
          "163637.591000",
          "163637.591000",
          "163637.606000",
          "163637.606000",
          "163637.606000",
          "163637.606000",
          "163637.622000",
          "163637.622000",
          "163637.638000",
          "163637.638000",
          "163637.638000",
          "163637.638000",
          "163637.638000",
          "163637.638000",
          "163637.653000",
          "163637.653000",
          "163711.059000",
          "163711.059000",
          "163711.075000",
          "163711.075000",
          "163711.075000",
          "163711.091000",
          "163711.106000",
          "163711.106000",
          "163711.106000",
          "163711.106000",
          "163711.122000",
          "163711.122000",
          "163711.122000",
          "163711.138000",
          "163711.138000",
          "163711.138000",
          "163711.138000"
        ],
        "InstanceCreationTime": [
          "163237.591000",
          "163237.606000",
          "163237.606000",
          "163237.606000",
          "163237.606000",
          "163237.606000",
          "163237.606000",
          "163237.622000",
          "163237.622000",
          "163237.622000",
          "163237.622000",
          "163237.638000",
          "163237.638000",
          "163237.638000",
          "163237.638000",
          "163237.638000",
          "163237.638000",
          "163237.653000",
          "163237.653000",
          "163237.653000",
          "163237.653000",
          "163237.653000",
          "163237.653000",
          "163237.669000",
          "163237.669000",
          "163237.669000",
          "163237.669000",
          "163317.591000",
          "163317.591000",
          "163317.591000",
          "163317.591000",
          "163317.591000",
          "163317.591000",
          "163317.606000",
          "163317.606000",
          "163317.622000",
          "163317.622000",
          "163317.622000",
          "163317.622000",
          "163317.622000",
          "163317.622000",
          "163317.638000",
          "163317.638000",
          "163317.638000",
          "163317.653000",
          "163317.653000",
          "163317.653000",
          "163357.591000",
          "163357.591000",
          "163357.591000",
          "163357.591000",
          "163357.591000",
          "163357.606000",
          "163357.606000",
          "163357.606000",
          "163357.606000",
          "163357.606000",
          "163357.606000",
          "163357.622000",
          "163357.622000",
          "163357.638000",
          "163357.638000",
          "163357.638000",
          "163357.638000",
          "163357.638000",
          "163357.638000",
          "163357.653000",
          "163437.591000",
          "163437.591000",
          "163437.591000",
          "163437.591000",
          "163437.591000",
          "163437.606000",
          "163437.606000",
          "163437.606000",
          "163437.606000",
          "163437.622000",
          "163437.622000",
          "163437.622000",
          "163437.622000",
          "163437.622000",
          "163437.622000",
          "163437.638000",
          "163437.653000",
          "163437.653000",
          "163437.653000",
          "163437.653000",
          "163517.591000",
          "163517.591000",
          "163517.591000",
          "163517.606000",
          "163517.606000",
          "163517.606000",
          "163517.606000",
          "163517.606000",
          "163517.622000",
          "163517.622000",
          "163517.622000",
          "163517.622000",
          "163517.622000",
          "163517.622000",
          "163517.638000",
          "163517.638000",
          "163517.638000",
          "163517.638000",
          "163517.638000",
          "163517.653000",
          "163557.591000",
          "163557.591000",
          "163557.591000",
          "163557.591000",
          "163557.591000",
          "163557.606000",
          "163557.606000",
          "163557.606000",
          "163557.622000",
          "163557.622000",
          "163557.622000",
          "163557.638000",
          "163557.638000",
          "163557.638000",
          "163557.638000",
          "163557.638000",
          "163557.638000",
          "163557.653000",
          "163557.653000",
          "163557.653000",
          "163637.591000",
          "163637.591000",
          "163637.591000",
          "163637.591000",
          "163637.591000",
          "163637.591000",
          "163637.606000",
          "163637.606000",
          "163637.606000",
          "163637.606000",
          "163637.622000",
          "163637.622000",
          "163637.638000",
          "163637.638000",
          "163637.638000",
          "163637.638000",
          "163637.638000",
          "163637.638000",
          "163637.653000",
          "163637.653000",
          "163711.059000",
          "163711.059000",
          "163711.075000",
          "163711.075000",
          "163711.075000",
          "163711.091000",
          "163711.106000",
          "163711.106000",
          "163711.106000",
          "163711.106000",
          "163711.122000",
          "163711.122000",
          "163711.122000",
          "163711.138000",
          "163711.138000",
          "163711.138000",
          "163711.138000"
        ],
        "InstanceNumber": [
          1,
          2,
          3,
          4,
          5,
          6,
          7,
          8,
          9,
          10,
          11,
          12,
          13,
          14,
          15,
          16,
          17,
          18,
          19,
          20,
          21,
          22,
          23,
          24,
          25,
          26,
          27,
          28,
          29,
          30,
          31,
          32,
          33,
          34,
          35,
          36,
          37,
          38,
          39,
          40,
          41,
          42,
          43,
          44,
          45,
          46,
          47,
          48,
          49,
          50,
          51,
          52,
          53,
          54,
          55,
          56,
          57,
          58,
          59,
          60,
          61,
          62,
          63,
          64,
          65,
          66,
          67,
          68,
          69,
          70,
          71,
          72,
          73,
          74,
          75,
          76,
          77,
          78,
          79,
          80,
          81,
          82,
          83,
          84,
          85,
          86,
          87,
          88,
          89,
          90,
          91,
          92,
          93,
          94,
          95,
          96,
          97,
          98,
          99,
          100,
          101,
          102,
          103,
          104,
          105,
          106,
          107,
          108,
          109,
          110,
          111,
          112,
          113,
          114,
          115,
          116,
          117,
          118,
          119,
          120,
          121,
          122,
          123,
          124,
          125,
          126,
          127,
          128,
          129,
          130,
          131,
          132,
          133,
          134,
          135,
          136,
          137,
          138,
          139,
          140,
          141,
          142,
          143,
          144,
          145,
          146,
          147,
          148,
          149,
          150,
          151,
          152,
          153,
          154,
          155,
          156,
          157,
          158,
          159,
          160,
          161,
          162,
          163,
          164
        ],
        "WindowCenter": [
          983.0,
          983.0,
          982.0,
          982.0,
          982.0,
          982.0,
          982.0,
          984.0,
          984.0,
          982.0,
          982.0,
          983.0,
          984.0,
          983.0,
          982.0,
          981.0,
          983.0,
          983.0,
          983.0,
          983.0,
          983.0,
          982.0,
          981.0,
          981.0,
          981.0,
          982.0,
          982.0,
          981.0,
          982.0,
          982.0,
          981.0,
          982.0,
          982.0,
          982.0,
          982.0,
          982.0,
          981.0,
          982.0,
          981.0,
          982.0,
          981.0,
          981.0,
          981.0,
          982.0,
          982.0,
          982.0,
          982.0,
          982.0,
          984.0,
          983.0,
          982.0,
          982.0,
          982.0,
          983.0,
          982.0,
          982.0,
          981.0,
          982.0,
          981.0,
          981.0,
          981.0,
          980.0,
          981.0,
          982.0,
          982.0,
          982.0,
          982.0,
          983.0,
          981.0,
          981.0,
          982.0,
          982.0,
          981.0,
          981.0,
          982.0,
          982.0,
          981.0,
          981.0,
          982.0,
          981.0,
          981.0,
          981.0,
          982.0,
          982.0,
          982.0,
          983.0,
          981.0,
          980.0,
          981.0,
          983.0,
          982.0,
          980.0,
          981.0,
          982.0,
          983.0,
          982.0,
          981.0,
          981.0,
          980.0,
          981.0,
          981.0,
          981.0,
          982.0,
          982.0,
          982.0,
          981.0,
          983.0,
          983.0,
          982.0,
          982.0,
          982.0,
          982.0,
          981.0,
          982.0,
          983.0,
          982.0,
          983.0,
          983.0,
          983.0,
          982.0,
          983.0,
          982.0,
          982.0,
          982.0,
          981.0,
          981.0,
          983.0,
          982.0,
          981.0,
          980.0,
          981.0,
          982.0,
          983.0,
          982.0,
          981.0,
          982.0,
          982.0,
          981.0,
          982.0,
          982.0,
          982.0,
          981.0,
          981.0,
          981.0,
          981.0,
          982.0,
          982.0,
          981.0,
          981.0,
          983.0,
          982.0,
          982.0,
          981.0,
          981.0,
          982.0,
          981.0,
          982.0,
          982.0,
          982.0,
          982.0,
          981.0,
          981.0,
          981.0,
          982.0
        ],
        "WindowWidth": [
          2647.0,
          2643.0,
          2643.0,
          2641.0,
          2638.0,
          2638.0,
          2641.0,
          2650.0,
          2650.0,
          2641.0,
          2640.0,
          2645.0,
          2652.0,
          2646.0,
          2636.0,
          2635.0,
          2644.0,
          2645.0,
          2638.0,
          2637.0,
          2637.0,
          2634.0,
          2632.0,
          2631.0,
          2633.0,
          2637.0,
          2636.0,
          2632.0,
          2635.0,
          2636.0,
          2636.0,
          2639.0,
          2641.0,
          2642.0,
          2639.0,
          2634.0,
          2638.0,
          2642.0,
          2640.0,
          2642.0,
          2638.0,
          2638.0,
          2643.0,
          2645.0,
          2642.0,
          2640.0,
          2640.0,
          2644.0,
          2644.0,
          2641.0,
          2636.0,
          2634.0,
          2635.0,
          2635.0,
          2641.0,
          2636.0,
          2633.0,
          2633.0,
          2638.0,
          2633.0,
          2627.0,
          2630.0,
          2638.0,
          2639.0,
          2639.0,
          2641.0,
          2645.0,
          2645.0,
          2641.0,
          2642.0,
          2646.0,
          2645.0,
          2640.0,
          2644.0,
          2649.0,
          2646.0,
          2642.0,
          2640.0,
          2639.0,
          2636.0,
          2633.0,
          2635.0,
          2637.0,
          2639.0,
          2640.0,
          2637.0,
          2634.0,
          2632.0,
          2643.0,
          2652.0,
          2640.0,
          2625.0,
          2633.0,
          2643.0,
          2641.0,
          2636.0,
          2635.0,
          2638.0,
          2638.0,
          2636.0,
