{
  "aor": 0.0015075609756097558,
  "aqi": 0.006975213231707317,
  "bids_meta": {
    "AcquisitionMatrixPE": 96,
    "AcquisitionNumber": 1,
    "AcquisitionTime": "16:49:15.302500",
    "BandwidthPerPixelPhaseEncode": 52.083,
    "BaseResolution": 96,
    "BodyPartExamined": "HEAD",
    "ConversionSoftware": "dcm2niix",
    "ConversionSoftwareVersion": "v1.0.20180622 GCC6.3.0",
    "DerivedVendorReportedEchoSpacing": 0.000600004,
    "DeviceSerialNumber": "18926",
    "DwellTime": 2.6e-06,
    "EchoTime": 0.025,
    "EffectiveEchoSpacing": 0.000200001,
    "FlipAngle": 50,
    "ImageOrientationPatientDICOM": [
      1,
      -2.05103e-10,
      0,
      2.05103e-10,
      1,
      0
    ],
    "ImageType": [
      "ORIGINAL",
      "PRIMARY",
      "M",
      "ND",
      "ECHO",
      "00",
      "MOSAIC"
    ],
    "InPlanePhaseEncodingDirectionDICOM": "ROW",
    "InstitutionName": "NIMH",
    "InstitutionalDepartmentName": "Department",
    "MRAcquisitionType": "2D",
    "MagneticFieldStrength": 6.98,
    "Manufacturer": "Siemens",
    "ManufacturersModelName": "Investigational_Device_7T",
    "Modality": "MR",
    "ParallelReductionFactorInPlane": 3,
    "PartialFourier": 1,
    "PatientPosition": "HFS",
    "PercentPhaseFOV": 100,
    "PhaseEncodingDirection": "i",
    "PhaseEncodingSteps": 94,
    "PhaseResolution": 1,
    "PixelBandwidth": 2003,
    "ProcedureStepDescription": "MRI_Procedure_Limited",
    "ProtocolName": "NIH_EPI_2.0iso_TR2_Run05",
    "PulseSequenceDetails": "%CustomerSeq%_inati_nih_epi",
    "ReceiveCoilName": "32Ch_Head_7T",
    "ReconMatrixPE": 96,
    "RepetitionTime": 2,
    "SAR": 0.0903172,
    "ScanningSequence": "EP",
    "SequenceName": "epfid2d1_96",
    "SequenceVariant": "SK",
    "SeriesDescription": "NIH_EPI_2.0iso_TR2_Run05",
    "SeriesNumber": 8,
    "ShimSetting": [
      -43,
      16,
      1336,
      2750,
      22,
      37,
      258,
      -281
    ],
    "SliceThickness": 2,
    "SliceTiming": [
      1.005,
      0,
      1.0425,
      0.0375,
      1.08,
      0.075,
      1.1175,
      0.1125,
      1.1525,
      0.15,
      1.19,
      0.1875,
      1.2275,
      0.225,
      1.265,
      0.26,
      1.3025,
      0.2975,
      1.34,
      0.335,
      1.3775,
      0.3725,
      1.4125,
      0.41,
      1.45,
      0.4475,
      1.4875,
      0.485,
      1.525,
      0.5225,
      1.5625,
      0.5575,
      1.6,
      0.595,
      1.6375,
      0.6325,
      1.675,
      0.67,
      1.71,
      0.7075,
      1.7475,
      0.745,
      1.785,
      0.7825,
      1.8225,
      0.82,
      1.86,
      0.855,
      1.8975,
      0.8925,
      1.935,
      0.93,
      1.9725,
      0.9675
    ],
    "SoftwareVersions": "syngo_MR_B17",
    "SpacingBetweenSlices": 2,
    "StationName": "FMRIFD7T",
    "TaskName": "FullFovAttentionTask",
    "TotalReadoutTime": 0.0190001,
    "TxRefAmp": 281,
    "dataset": "ds001555",
    "dcmmeta_affine": [
      [
        -2.0,
        4.1020681296188855e-10,
        0.0,
        95.98538208007812
      ],
      [
        4.1020681296188855e-10,
        2.0,
        0.0,
        -75.12183380126953
      ],
      [
        0.0,
        0.0,
        2.0,
        -31.942644119262695
      ],
      [
        0.0,
        0.0,
        0.0,
        1.0
      ]
    ],
    "dcmmeta_reorient_transform": [
      [
        0.0,
        -1.0,
        0.0,
        95.0
      ],
      [
        1.0,
        0.0,
        0.0,
        0.0
      ],
      [
        0.0,
        0.0,
        1.0,
        0.0
      ],
      [
        0.0,
        0.0,
        0.0,
        1.0
      ]
    ],
    "dcmmeta_shape": [
      96,
      96,
      54,
      164
    ],
    "dcmmeta_slice_dim": 2,
    "dcmmeta_version": 0.6,
    "global": {
      "const": {
        "AcquisitionMatrix": [
          0,
          96,
          96,
          0
        ],
        "Allergies": "No Known Allergies",
        "AngioFlag": "N",
        "BitsAllocated": 16,
        "BitsStored": 12,
        "BodyPartExamined": "HEAD",
        "Columns": 768,
        "EchoNumbers": 1,
        "EchoTime": 25.0,
        "EchoTrainLength": 1,
        "FlipAngle": 50.0,
        "HighBit": 11,
        "ImageOrientationPatient": [
          1.0,
          -2.051034e-10,
          0.0,
          2.051034e-10,
          1.0,
          0.0
        ],
        "ImagePositionPatient": [
          -767.98537955166,
          -786.87816794856,
          -31.942644119263
        ],
        "ImageType": [
          "ORIGINAL",
          "PRIMARY",
          "M",
          "ND",
          "ECHO_00",
          "MOSAIC"
        ],
        "ImagedNucleus": "1H",
        "ImagingFrequency": 297.204963,
        "InPlanePhaseEncodingDirection": "ROW",
        "LargestImagePixelValue": 4095,
        "MRAcquisitionType": "2D",
        "MagneticFieldStrength": 6.98,
        "Manufacturer": "SIEMENS",
        "ManufacturerModelName": "Investigational_Device_7T",
        "Modality": "MR",
        "NumberOfAverages": 1.0,
        "NumberOfPhaseEncodingSteps": 94,
        "PercentPhaseFieldOfView": 100.0,
        "PercentSampling": 100.0,
        "PerformedProcedureStepStartTime": "160834.390000",
        "PhotometricInterpretation": "MONOCHROME2",
        "PixelBandwidth": 2003.0,
        "PixelRepresentation": 0,
        "PixelSpacing": [
          2.0,
          2.0
        ],
        "PositionReferenceIndicator": "",
        "ProcedureCodeSequence": [
          {
            "CodeMeaning": "MRI Procedure Limited",
            "CodeValue": "MI01491",
            "CodingSchemeDesignator": "USA Standard",
            "ContextIdentifier": "4000135229"
          }
        ],
        "ProtocolName": "NIH_EPI_2.0iso_TR2_Run05",
        "ReferencedStudySequence": [
          {
            "ReferencedSOPClassUID": "1.2.840.10008.3.1.2.3.1",
            "ReferencedSOPInstanceUID": "1.2.840.113564.9.1.2787814059.53.2.5000101085"
          }
        ],
        "RepetitionTime": 2000.0,
        "RequestedProcedureCodeSequence": [
          {
            "CodeMeaning": "MRI Procedure Limited",
            "CodeValue": "MI01491",
            "CodingSchemeDesignator": "USA Standard",
            "ContextIdentifier": "4000135229"
          }
        ],
        "RequestingService": "NIMH Molecular Imaging Branch",
        "Rows": 768,
        "SAR": 0.09031717725915,
        "SamplesPerPixel": 1,
        "ScanningSequence": "EP",
        "SequenceName": "epfid2d1_96",
        "SequenceVariant": "SK",
        "SeriesDescription": "NIH_EPI_2.0iso_TR2_Run05",
        "SeriesNumber": 8,
        "SliceLocation": -31.942644119263,
        "SliceThickness": 2.0,
        "SmallestImagePixelValue": 0,
        "SoftwareVersions": "syngo MR B17",
        "SpacingBetweenSlices": 2.0000000359877,
        "TransmitCoilName": "32Ch_Head_7T",
        "VariableFlipAngleFlag": "N",
        "WindowCenterWidthExplanation": "Algo1",
        "dBdt": 0.0
      },
      "slices": {}
    },
    "modality": "bold",
    "run_id": 5,
    "session_id": "10",
    "subject_id": "003",
    "task_id": "FullFovAttentionTask",
    "time": {
      "samples": {
        "AcquisitionNumber": [
          1,
          2,
          3,
          4,
          5,
          6,
          7,
          8,
          9,
          10,
          11,
          12,
          13,
          14,
          15,
          16,
          17,
          18,
          19,
          20,
          21,
          22,
          23,
          24,
          25,
          26,
          27,
          28,
          29,
          30,
          31,
          32,
          33,
          34,
          35,
          36,
          37,
          38,
          39,
          40,
          41,
          42,
          43,
          44,
          45,
          46,
          47,
          48,
          49,
          50,
          51,
          52,
          53,
          54,
          55,
          56,
          57,
          58,
          59,
          60,
          61,
          62,
          63,
          64,
          65,
          66,
          67,
          68,
          69,
          70,
          71,
          72,
          73,
          74,
          75,
          76,
          77,
          78,
          79,
          80,
          81,
          82,
          83,
          84,
          85,
          86,
          87,
          88,
          89,
          90,
          91,
          92,
          93,
          94,
          95,
          96,
          97,
          98,
          99,
          100,
          101,
          102,
          103,
          104,
          105,
          106,
          107,
          108,
          109,
          110,
          111,
          112,
          113,
          114,
          115,
          116,
          117,
          118,
          119,
          120,
          121,
          122,
          123,
          124,
          125,
          126,
          127,
          128,
          129,
          130,
          131,
          132,
          133,
          134,
          135,
          136,
          137,
          138,
          139,
          140,
          141,
          142,
          143,
          144,
          145,
          146,
          147,
          148,
          149,
          150,
          151,
          152,
          153,
          154,
          155,
          156,
          157,
          158,
          159,
          160,
          161,
          162,
          163,
          164
        ],
        "AcquisitionTime": [
          "164915.302500",
          "164919.317500",
          "164921.327500",
          "164923.335000",
          "164925.342500",
          "164927.350000",
          "164929.357500",
          "164931.367500",
          "164933.375000",
          "164935.382500",
          "164937.390000",
          "164939.397500",
          "164941.407500",
          "164943.415000",
          "164945.422500",
          "164947.430000",
          "164949.440000",
          "164951.447500",
          "164953.455000",
          "164955.462500",
          "164957.470000",
          "164959.480000",
          "165001.487500",
          "165003.495000",
          "165005.502500",
          "165007.510000",
          "165009.520000",
          "165011.527500",
          "165013.535000",
          "165015.542500",
          "165017.552500",
          "165019.560000",
          "165021.567500",
          "165023.575000",
          "165025.582500",
          "165027.592500",
          "165029.600000",
          "165031.607500",
          "165033.615000",
          "165035.622500",
          "165037.632500",
          "165039.640000",
          "165041.647500",
          "165043.655000",
          "165045.662500",
          "165047.672500",
          "165049.680000",
          "165051.687500",
          "165053.695000",
          "165055.705000",
          "165057.712500",
          "165059.720000",
          "165101.727500",
          "165103.735000",
          "165105.745000",
          "165107.752500",
          "165109.760000",
          "165111.767500",
          "165113.775000",
          "165115.785000",
          "165117.792500",
          "165119.800000",
          "165121.807500",
          "165123.817500",
          "165125.825000",
          "165127.832500",
          "165129.840000",
          "165131.847500",
          "165133.857500",
          "165135.865000",
          "165137.872500",
          "165139.880000",
          "165141.887500",
          "165143.897500",
          "165145.905000",
          "165147.912500",
          "165149.920000",
          "165151.930000",
          "165153.937500",
          "165155.945000",
          "165157.952500",
          "165159.960000",
          "165201.970000",
          "165203.977500",
          "165205.985000",
          "165207.992500",
          "165210.000000",
          "165212.010000",
          "165214.017500",
          "165216.025000",
          "165218.032500",
          "165220.040000",
          "165222.050000",
          "165224.057500",
          "165226.065000",
          "165228.072500",
          "165230.082500",
          "165232.090000",
          "165234.097500",
          "165236.105000",
          "165238.112500",
          "165240.122500",
          "165242.130000",
          "165244.137500",
          "165246.145000",
          "165248.152500",
          "165250.162500",
          "165252.170000",
          "165254.177500",
          "165256.185000",
          "165258.195000",
          "165300.202500",
          "165302.210000",
          "165304.217500",
          "165306.225000",
          "165308.235000",
          "165310.242500",
          "165312.250000",
          "165314.257500",
          "165316.265000",
          "165318.275000",
          "165320.282500",
          "165322.290000",
          "165324.297500",
          "165326.307500",
          "165328.315000",
          "165330.322500",
          "165332.330000",
          "165334.337500",
          "165336.347500",
          "165338.355000",
          "165340.362500",
          "165342.370000",
          "165344.377500",
          "165346.387500",
          "165348.395000",
          "165350.402500",
          "165352.410000",
          "165354.417500",
          "165356.427500",
          "165358.435000",
          "165400.442500",
          "165402.450000",
          "165404.460000",
          "165406.467500",
          "165408.475000",
          "165410.482500",
          "165412.490000",
          "165414.500000",
          "165416.507500",
          "165418.515000",
          "165420.522500",
          "165422.530000",
          "165424.540000",
          "165426.547500",
          "165428.555000",
          "165430.562500",
          "165432.572500",
          "165434.580000",
          "165436.587500",
          "165438.595000",
          "165440.602500",
          "165442.612500",
          "165444.620000"
        ],
        "ContentTime": [
          "164957.406000",
          "164957.421000",
          "164957.421000",
          "164957.421000",
          "164957.421000",
          "164957.421000",
          "164957.437000",
          "164957.437000",
          "164957.437000",
          "164957.437000",
          "164957.437000",
          "164957.437000",
          "164957.437000",
          "164957.453000",
          "164957.453000",
          "164957.453000",
          "164957.453000",
          "164957.453000",
          "164957.453000",
          "164957.468000",
          "165037.390000",
          "165037.406000",
          "165037.406000",
          "165037.406000",
          "165037.406000",
          "165037.421000",
          "165037.421000",
          "165037.421000",
          "165037.421000",
          "165037.421000",
          "165037.421000",
          "165037.421000",
          "165037.437000",
          "165037.437000",
          "165037.437000",
          "165037.437000",
          "165037.437000",
          "165037.437000",
          "165037.437000",
          "165037.453000",
          "165117.390000",
          "165117.406000",
          "165117.406000",
          "165117.406000",
          "165117.406000",
          "165117.406000",
          "165117.421000",
          "165117.421000",
          "165117.421000",
          "165117.421000",
          "165117.421000",
          "165117.421000",
          "165117.437000",
          "165117.437000",
          "165117.437000",
          "165117.437000",
          "165117.437000",
          "165117.437000",
          "165117.453000",
          "165117.453000",
          "165157.390000",
          "165157.406000",
          "165157.406000",
          "165157.406000",
          "165157.406000",
          "165157.406000",
          "165157.406000",
          "165157.421000",
          "165157.421000",
          "165157.421000",
          "165157.421000",
          "165157.421000",
          "165157.421000",
          "165157.437000",
          "165157.437000",
          "165157.437000",
          "165157.437000",
          "165157.437000",
          "165157.437000",
          "165157.453000",
          "165237.390000",
          "165237.406000",
          "165237.406000",
          "165237.406000",
          "165237.421000",
          "165237.421000",
          "165237.421000",
          "165237.421000",
          "165237.437000",
          "165237.437000",
          "165237.437000",
          "165237.437000",
          "165237.437000",
          "165237.437000",
          "165237.453000",
          "165237.453000",
          "165237.453000",
          "165237.453000",
          "165237.453000",
          "165237.453000",
          "165317.390000",
          "165317.406000",
          "165317.406000",
          "165317.406000",
          "165317.421000",
          "165317.421000",
          "165317.421000",
          "165317.421000",
          "165317.421000",
          "165317.437000",
          "165317.437000",
          "165317.437000",
          "165317.437000",
          "165317.437000",
          "165317.437000",
          "165317.453000",
          "165317.453000",
          "165317.453000",
          "165317.453000",
          "165317.453000",
          "165357.390000",
          "165357.406000",
          "165357.406000",
          "165357.406000",
          "165357.406000",
          "165357.406000",
          "165357.421000",
          "165357.421000",
          "165357.421000",
          "165357.421000",
          "165357.421000",
          "165357.437000",
          "165357.437000",
          "165357.437000",
          "165357.437000",
          "165357.437000",
          "165357.437000",
          "165357.453000",
          "165357.453000",
          "165357.453000",
          "165437.390000",
          "165437.406000",
          "165437.406000",
          "165437.406000",
          "165437.406000",
          "165437.406000",
          "165437.406000",
          "165437.421000",
          "165437.421000",
          "165437.421000",
          "165437.421000",
          "165437.421000",
          "165437.421000",
          "165437.437000",
          "165437.437000",
          "165437.437000",
          "165437.437000",
          "165437.437000",
          "165437.437000",
          "165437.437000",
          "165444.937000",
          "165444.953000",
          "165444.953000",
          "165444.953000"
        ],
        "InstanceCreationTime": [
          "164957.406000",
          "164957.421000",
          "164957.421000",
          "164957.421000",
          "164957.421000",
          "164957.421000",
          "164957.437000",
          "164957.437000",
          "164957.437000",
          "164957.437000",
          "164957.437000",
          "164957.437000",
          "164957.437000",
          "164957.453000",
          "164957.453000",
          "164957.453000",
          "164957.453000",
          "164957.453000",
          "164957.453000",
          "164957.468000",
          "165037.390000",
          "165037.406000",
          "165037.406000",
          "165037.406000",
          "165037.406000",
          "165037.421000",
          "165037.421000",
          "165037.421000",
          "165037.421000",
          "165037.421000",
          "165037.421000",
          "165037.421000",
          "165037.437000",
          "165037.437000",
          "165037.437000",
          "165037.437000",
          "165037.437000",
          "165037.437000",
          "165037.437000",
          "165037.453000",
          "165117.390000",
          "165117.406000",
          "165117.406000",
          "165117.406000",
          "165117.406000",
          "165117.406000",
          "165117.421000",
          "165117.421000",
          "165117.421000",
          "165117.421000",
          "165117.421000",
          "165117.421000",
          "165117.437000",
          "165117.437000",
          "165117.437000",
          "165117.437000",
          "165117.437000",
          "165117.437000",
          "165117.453000",
          "165117.453000",
          "165157.390000",
          "165157.406000",
          "165157.406000",
          "165157.406000",
          "165157.406000",
          "165157.406000",
          "165157.406000",
          "165157.421000",
          "165157.421000",
          "165157.421000",
          "165157.421000",
          "165157.421000",
          "165157.421000",
          "165157.437000",
          "165157.437000",
          "165157.437000",
          "165157.437000",
          "165157.437000",
          "165157.437000",
          "165157.453000",
          "165237.390000",
          "165237.406000",
          "165237.406000",
          "165237.406000",
          "165237.421000",
          "165237.421000",
          "165237.421000",
          "165237.421000",
          "165237.437000",
          "165237.437000",
          "165237.437000",
          "165237.437000",
          "165237.437000",
          "165237.437000",
          "165237.453000",
          "165237.453000",
          "165237.453000",
          "165237.453000",
          "165237.453000",
          "165237.453000",
          "165317.390000",
          "165317.406000",
          "165317.406000",
          "165317.406000",
          "165317.421000",
          "165317.421000",
          "165317.421000",
          "165317.421000",
          "165317.421000",
          "165317.437000",
          "165317.437000",
          "165317.437000",
          "165317.437000",
          "165317.437000",
          "165317.437000",
          "165317.453000",
          "165317.453000",
          "165317.453000",
          "165317.453000",
          "165317.453000",
          "165357.390000",
          "165357.406000",
          "165357.406000",
          "165357.406000",
          "165357.406000",
          "165357.406000",
          "165357.421000",
          "165357.421000",
          "165357.421000",
          "165357.421000",
          "165357.421000",
          "165357.437000",
          "165357.437000",
          "165357.437000",
          "165357.437000",
          "165357.437000",
          "165357.437000",
          "165357.453000",
          "165357.453000",
          "165357.453000",
          "165437.390000",
          "165437.406000",
          "165437.406000",
          "165437.406000",
          "165437.406000",
          "165437.406000",
          "165437.406000",
          "165437.421000",
          "165437.421000",
          "165437.421000",
          "165437.421000",
          "165437.421000",
          "165437.421000",
          "165437.437000",
          "165437.437000",
          "165437.437000",
          "165437.437000",
          "165437.437000",
          "165437.437000",
          "165437.437000",
          "165444.937000",
          "165444.953000",
          "165444.953000",
          "165444.953000"
        ],
        "InstanceNumber": [
          1,
          2,
          3,
          4,
          5,
          6,
          7,
          8,
          9,
          10,
          11,
          12,
          13,
          14,
          15,
          16,
          17,
          18,
          19,
          20,
          21,
          22,
          23,
          24,
          25,
          26,
          27,
          28,
          29,
          30,
          31,
          32,
          33,
          34,
          35,
          36,
          37,
          38,
          39,
          40,
          41,
          42,
          43,
          44,
          45,
          46,
          47,
          48,
          49,
          50,
          51,
          52,
          53,
          54,
          55,
          56,
          57,
          58,
          59,
          60,
          61,
          62,
          63,
          64,
          65,
          66,
          67,
          68,
          69,
          70,
          71,
          72,
          73,
          74,
          75,
          76,
          77,
          78,
          79,
          80,
          81,
          82,
          83,
          84,
          85,
          86,
          87,
          88,
          89,
          90,
          91,
          92,
          93,
          94,
          95,
          96,
          97,
          98,
          99,
          100,
          101,
          102,
          103,
          104,
          105,
          106,
          107,
          108,
          109,
          110,
          111,
          112,
          113,
          114,
          115,
          116,
          117,
          118,
          119,
          120,
          121,
          122,
          123,
          124,
          125,
          126,
          127,
          128,
          129,
          130,
          131,
          132,
          133,
          134,
          135,
          136,
          137,
          138,
          139,
          140,
          141,
          142,
          143,
          144,
          145,
          146,
          147,
          148,
          149,
          150,
          151,
          152,
          153,
          154,
          155,
          156,
          157,
          158,
          159,
          160,
          161,
          162,
          163,
          164
        ],
        "WindowCenter": [
          983.0,
          982.0,
          982.0,
          981.0,
          981.0,
          982.0,
          983.0,
          982.0,
          982.0,
          982.0,
          982.0,
          982.0,
          982.0,
          981.0,
          982.0,
          981.0,
          983.0,
          984.0,
          983.0,
          984.0,
          985.0,
          985.0,
          983.0,
          982.0,
          981.0,
          982.0,
          981.0,
          981.0,
          982.0,
          983.0,
          984.0,
          985.0,
          983.0,
          984.0,
          984.0,
          982.0,
          981.0,
          981.0,
          981.0,
          981.0,
          980.0,
          980.0,
          980.0,
          980.0,
          982.0,
          983.0,
          982.0,
          981.0,
          980.0,
          979.0,
          979.0,
          979.0,
          980.0,
          979.0,
          980.0,
          980.0,
          980.0,
          982.0,
          982.0,
          985.0,
          986.0,
          985.0,
          983.0,
          982.0,
          982.0,
          982.0,
          982.0,
          981.0,
          980.0,
          979.0,
          980.0,
          980.0,
          979.0,
          979.0,
          978.0,
          979.0,
          979.0,
          980.0,
          980.0,
          981.0,
          983.0,
          983.0,
          984.0,
          984.0,
          981.0,
          980.0,
          979.0,
          979.0,
          979.0,
          979.0,
          979.0,
          979.0,
          980.0,
          980.0,
          980.0,
          982.0,
          983.0,
          982.0,
          981.0,
          980.0,
          980.0,
          979.0,
          978.0,
          977.0,
          978.0,
          979.0,
          981.0,
          983.0,
          981.0,
          980.0,
          978.0,
          979.0,
          978.0,
          978.0,
          978.0,
          979.0,
          981.0,
          980.0,
          982.0,
          981.0,
          979.0,
          980.0,
          981.0,
          982.0,
          982.0,
          980.0,
          978.0,
          979.0,
          980.0,
          980.0,
          979.0,
          979.0,
          980.0,
          982.0,
          983.0,
          982.0,
          981.0,
          980.0,
          980.0,
          980.0,
          981.0,
          982.0,
          983.0,
          984.0,
          982.0,
          980.0,
          982.0,
          982.0,
          982.0,
          981.0,
          981.0,
          982.0,
          982.0,
          980.0,
          978.0,
          980.0,
          981.0,
          981.0,
          981.0,
          980.0,
          980.0,
          979.0,
          978.0,
          979.0
        ],
        "WindowWidth": [
          2606.0,
          2608.0,
          2606.0,
          2603.0,
          2604.0,
          2606.0,
          2611.0,
          2614.0,
          2612.0,
          2608.0,
          2608.0,
          2608.0,
          2607.0,
          2605.0,
          2605.0,
          2610.0,
          2616.0,
          2617.0,
          2618.0,
          2624.0,
          2624.0,
          2622.0,
          2615.0,
          2606.0,
          2601.0,
          2596.0,
          2596.0,
          2600.0,
          2609.0,
          2616.0,
          2614.0,
          2616.0,
          2617.0,
          2622.0,
          2617.0,
          2606.0,
          2604.0,
          2604.0,
          2606.0,
          2606.0,
          2605.0,
          2601.0,
          2601.0,
          2608.0,
          2618.0,
          2619.0,
          2610.0,
          2598.0,
          2588.0,
          2587.0,
          2590.0,
          2594.0,
          2594.0,
          2596.0,
          2595.0,
          2600.0,
          2607.0,
          2614.0,
          2618.0,
          2629.0,
          2629.0,
          2618.0,
          2605.0,
          2606.0,
          2611.0,
          2615.0,
          2614.0,
          2609.0,
          2602.0,
          2598.0,
          2600.0,
          2600.0,
          2598.0,
          2594.0,
          2593.0,
          2596.0,
          2598.0,
          2594.0,
          2597.0,
          2605.0,
          2614.0,
          2619.0,
          2623.0,
          2615.0,
          2601.0,
          2591.0,
          2587.0,
          2586.0,
          2587.0,
          2587.0,
          2589.0,
          2592.0,
          2594.0,
          2597.0,
          2601.0,
          2610.0,
          2615.0,
          2612.0,
          2606.0,
          2601.0,
          2598.0,
