{
  "aor": 0.0027434146341463414,
  "aqi": 0.00584734762195122,
  "bids_meta": {
    "AcquisitionMatrixPE": 96,
    "AcquisitionNumber": 1,
    "AcquisitionTime": "19:21:46.205000",
    "BandwidthPerPixelPhaseEncode": 52.083,
    "BaseResolution": 96,
    "BodyPartExamined": "HEAD",
    "ConversionSoftware": "dcm2niix",
    "ConversionSoftwareVersion": "v1.0.20180622 GCC6.3.0",
    "DerivedVendorReportedEchoSpacing": 0.000600004,
    "DeviceSerialNumber": "18926",
    "DwellTime": 2.6e-06,
    "EchoTime": 0.025,
    "EffectiveEchoSpacing": 0.000200001,
    "FlipAngle": 50,
    "ImageOrientationPatientDICOM": [
      0.999992,
      0.000789945,
      0.00402739,
      2.04197e-10,
      0.981302,
      -0.192476
    ],
    "ImageType": [
      "ORIGINAL",
      "PRIMARY",
      "M",
      "ND",
      "ECHO",
      "00",
      "MOSAIC"
    ],
    "InPlanePhaseEncodingDirectionDICOM": "ROW",
    "InstitutionName": "NIMH",
    "InstitutionalDepartmentName": "Department",
    "MRAcquisitionType": "2D",
    "MagneticFieldStrength": 6.98,
    "Manufacturer": "Siemens",
    "ManufacturersModelName": "Investigational_Device_7T",
    "Modality": "MR",
    "ParallelReductionFactorInPlane": 3,
    "PartialFourier": 1,
    "PatientPosition": "HFS",
    "PercentPhaseFOV": 100,
    "PhaseEncodingDirection": "i",
    "PhaseEncodingSteps": 94,
    "PhaseResolution": 1,
    "PixelBandwidth": 2003,
    "ProcedureStepDescription": "MRI_Brain",
    "ProtocolName": "NIH_EPI_2.0iso_TR2_Run06",
    "PulseSequenceDetails": "%CustomerSeq%_inati_nih_epi",
    "ReceiveCoilName": "32Ch_Head_7T",
    "ReconMatrixPE": 96,
    "RepetitionTime": 2,
    "SAR": 0.0815459,
    "ScanningSequence": "EP",
    "SequenceName": "epfid2d1_96",
    "SequenceVariant": "SK",
    "SeriesDescription": "NIH_EPI_2.0iso_TR2_Run06",
    "SeriesNumber": 10,
    "ShimSetting": [
      -52,
      147,
      883,
      1279,
      -152,
      463,
      179,
      -443
    ],
    "SliceThickness": 2,
    "SliceTiming": [
      1.005,
      0,
      1.0425,
      0.0375,
      1.08,
      0.075,
      1.1175,
      0.1125,
      1.1525,
      0.15,
      1.19,
      0.1875,
      1.2275,
      0.225,
      1.265,
      0.2625,
      1.3025,
      0.2975,
      1.34,
      0.335,
      1.3775,
      0.3725,
      1.415,
      0.41,
      1.45,
      0.4475,
      1.4875,
      0.485,
      1.525,
      0.5225,
      1.5625,
      0.56,
      1.6,
      0.595,
      1.6375,
      0.6325,
      1.675,
      0.67,
      1.7125,
      0.7075,
      1.7475,
      0.745,
      1.785,
      0.7825,
      1.8225,
      0.82,
      1.86,
      0.855,
      1.8975,
      0.8925,
      1.935,
      0.93,
      1.9725,
      0.9675
    ],
    "SoftwareVersions": "syngo_MR_B17",
    "SpacingBetweenSlices": 2,
    "StationName": "FMRIFD7T",
    "TaskName": "HalfFovNoTask",
    "TotalReadoutTime": 0.0190001,
    "TxRefAmp": 326,
    "dataset": "ds001555",
    "dcmmeta_affine": [
      [
        -1.9999831914901733,
        4.0839379100710005e-10,
        0.008208253420889378,
        95.76705169677734
      ],
      [
        -0.0015798897948116064,
        1.9626034498214722,
        -0.38494834303855896,
        -56.340240478515625
      ],
      [
        0.008054773323237896,
        0.3849515914916992,
        1.9625868797302246,
        -42.00886535644531
      ],
      [
        0.0,
        0.0,
        0.0,
        1.0
      ]
    ],
    "dcmmeta_reorient_transform": [
      [
        0.0,
        -1.0,
        0.0,
        95.0
      ],
      [
        1.0,
        0.0,
        0.0,
        0.0
      ],
      [
        0.0,
        0.0,
        1.0,
        0.0
      ],
      [
        0.0,
        0.0,
        0.0,
        1.0
      ]
    ],
    "dcmmeta_shape": [
      96,
      96,
      54,
      164
    ],
    "dcmmeta_slice_dim": 2,
    "dcmmeta_version": 0.6,
    "global": {
      "const": {
        "AcquisitionMatrix": [
          0,
          96,
          96,
          0
        ],
        "Allergies": "No Known Allergies",
        "AngioFlag": "N",
        "BitsAllocated": 16,
        "BitsStored": 12,
        "BodyPartExamined": "HEAD",
        "Columns": 768,
        "EchoNumbers": 1,
        "EchoTime": 25.0,
        "EchoTrainLength": 1,
        "FlipAngle": 50.0,
        "HighBit": 11,
        "ImageOrientationPatient": [
          0.99999157803654,
          0.00078994487055,
          0.00402738663197,
          2.041969e-10,
          0.98130172034061,
          -0.1924758001842
        ],
        "ImagePositionPatient": [
          -767.7613927697,
          -790.07268519809,
          121.19887111008
        ],
        "ImageType": [
          "ORIGINAL",
          "PRIMARY",
          "M",
          "ND",
          "ECHO_00",
          "MOSAIC"
        ],
        "ImagedNucleus": "1H",
        "ImagingFrequency": 297.204912,
        "InPlanePhaseEncodingDirection": "ROW",
        "LargestImagePixelValue": 4095,
        "MRAcquisitionType": "2D",
        "MagneticFieldStrength": 6.98,
        "Manufacturer": "SIEMENS",
        "ManufacturerModelName": "Investigational_Device_7T",
        "Modality": "MR",
        "NumberOfAverages": 1.0,
        "NumberOfPhaseEncodingSteps": 94,
        "PercentPhaseFieldOfView": 100.0,
        "PercentSampling": 100.0,
        "PerformedProcedureStepStartTime": "183342.484000",
        "PhotometricInterpretation": "MONOCHROME2",
        "PixelBandwidth": 2003.0,
        "PixelRepresentation": 0,
        "PixelSpacing": [
          2.0,
          2.0
        ],
        "PositionReferenceIndicator": "",
        "ProcedureCodeSequence": [
          {
            "CodeMeaning": "MRI Brain",
            "CodeValue": "MI01417",
            "CodingSchemeDesignator": "USA Standard",
            "ContextIdentifier": "4000120207"
          }
        ],
        "ProtocolName": "NIH_EPI_2.0iso_TR2_Run06",
        "ReferencedStudySequence": [
          {
            "ReferencedSOPClassUID": "1.2.840.10008.3.1.2.3.1",
            "ReferencedSOPInstanceUID": "1.2.840.113564.9.1.2723958737.61.2.5000086038"
          }
        ],
        "RepetitionTime": 2000.0,
        "RequestedProcedureCodeSequence": [
          {
            "CodeMeaning": "MRI Brain",
            "CodeValue": "MI01417",
            "CodingSchemeDesignator": "USA Standard",
            "ContextIdentifier": "4000120207"
          }
        ],
        "RequestingService": "NIHM Molecular Imaging Branch",
        "Rows": 768,
        "SAR": 0.08154586538278,
        "SamplesPerPixel": 1,
        "ScanningSequence": "EP",
        "SequenceName": "epfid2d1_96",
        "SequenceVariant": "SK",
        "SeriesDescription": "NIH_EPI_2.0iso_TR2_Run06",
        "SeriesNumber": 10,
        "SliceLocation": -29.98594245138,
        "SliceThickness": 2.0,
        "SmallestImagePixelValue": 0,
        "SoftwareVersions": "syngo MR B17",
        "SpacingBetweenSlices": 1.9999999763491,
        "TransmitCoilName": "32Ch_Head_7T",
        "VariableFlipAngleFlag": "N",
        "WindowCenterWidthExplanation": "Algo1",
        "dBdt": 0.0
      },
      "slices": {}
    },
    "modality": "bold",
    "run_id": 7,
    "session_id": "07",
    "subject_id": "001",
    "task_id": "HalfFovNoTask",
    "time": {
      "samples": {
        "AcquisitionNumber": [
          1,
          2,
          3,
          4,
          5,
          6,
          7,
          8,
          9,
          10,
          11,
          12,
          13,
          14,
          15,
          16,
          17,
          18,
          19,
          20,
          21,
          22,
          23,
          24,
          25,
          26,
          27,
          28,
          29,
          30,
          31,
          32,
          33,
          34,
          35,
          36,
          37,
          38,
          39,
          40,
          41,
          42,
          43,
          44,
          45,
          46,
          47,
          48,
          49,
          50,
          51,
          52,
          53,
          54,
          55,
          56,
          57,
          58,
          59,
          60,
          61,
          62,
          63,
          64,
          65,
          66,
          67,
          68,
          69,
          70,
          71,
          72,
          73,
          74,
          75,
          76,
          77,
          78,
          79,
          80,
          81,
          82,
          83,
          84,
          85,
          86,
          87,
          88,
          89,
          90,
          91,
          92,
          93,
          94,
          95,
          96,
          97,
          98,
          99,
          100,
          101,
          102,
          103,
          104,
          105,
          106,
          107,
          108,
          109,
          110,
          111,
          112,
          113,
          114,
          115,
          116,
          117,
          118,
          119,
          120,
          121,
          122,
          123,
          124,
          125,
          126,
          127,
          128,
          129,
          130,
          131,
          132,
          133,
          134,
          135,
          136,
          137,
          138,
          139,
          140,
          141,
          142,
          143,
          144,
          145,
          146,
          147,
          148,
          149,
          150,
          151,
          152,
          153,
          154,
          155,
          156,
          157,
          158,
          159,
          160,
          161,
          162,
          163,
          164
        ],
        "AcquisitionTime": [
          "192146.205000",
          "192150.220000",
          "192152.230000",
          "192154.237500",
          "192156.245000",
          "192158.252500",
          "192200.260000",
          "192202.270000",
          "192204.277500",
          "192206.285000",
          "192208.292500",
          "192210.302500",
          "192212.310000",
          "192214.317500",
          "192216.325000",
          "192218.332500",
          "192220.342500",
          "192222.350000",
          "192224.357500",
          "192226.365000",
          "192228.372500",
          "192230.382500",
          "192232.390000",
          "192234.397500",
          "192236.405000",
          "192238.415000",
          "192240.422500",
          "192242.430000",
          "192244.437500",
          "192246.445000",
          "192248.455000",
          "192250.462500",
          "192252.470000",
          "192254.477500",
          "192256.485000",
          "192258.495000",
          "192300.502500",
          "192302.510000",
          "192304.517500",
          "192306.525000",
          "192308.535000",
          "192310.542500",
          "192312.550000",
          "192314.557500",
          "192316.567500",
          "192318.575000",
          "192320.582500",
          "192322.590000",
          "192324.597500",
          "192326.607500",
          "192328.615000",
          "192330.622500",
          "192332.630000",
          "192334.637500",
          "192336.647500",
          "192338.655000",
          "192340.662500",
          "192342.670000",
          "192344.680000",
          "192346.687500",
          "192348.695000",
          "192350.702500",
          "192352.710000",
          "192354.720000",
          "192356.727500",
          "192358.735000",
          "192400.742500",
          "192402.750000",
          "192404.760000",
          "192406.767500",
          "192408.775000",
          "192410.782500",
          "192412.792500",
          "192414.800000",
          "192416.807500",
          "192418.815000",
          "192420.822500",
          "192422.832500",
          "192424.840000",
          "192426.847500",
          "192428.855000",
          "192430.862500",
          "192432.872500",
          "192434.880000",
          "192436.887500",
          "192438.895000",
          "192440.902500",
          "192442.912500",
          "192444.920000",
          "192446.927500",
          "192448.935000",
          "192450.945000",
          "192452.952500",
          "192454.960000",
          "192456.967500",
          "192458.975000",
          "192500.985000",
          "192502.992500",
          "192505.000000",
          "192507.007500",
          "192509.015000",
          "192511.025000",
          "192513.032500",
          "192515.040000",
          "192517.047500",
          "192519.057500",
          "192521.065000",
          "192523.072500",
          "192525.080000",
          "192527.087500",
          "192529.097500",
          "192531.105000",
          "192533.112500",
          "192535.120000",
          "192537.127500",
          "192539.137500",
          "192541.145000",
          "192543.152500",
          "192545.160000",
          "192547.170000",
          "192549.177500",
          "192551.185000",
          "192553.192500",
          "192555.200000",
          "192557.210000",
          "192559.217500",
          "192601.225000",
          "192603.232500",
          "192605.240000",
          "192607.250000",
          "192609.257500",
          "192611.265000",
          "192613.272500",
          "192615.280000",
          "192617.290000",
          "192619.297500",
          "192621.305000",
          "192623.312500",
          "192625.322500",
          "192627.330000",
          "192629.337500",
          "192631.345000",
          "192633.352500",
          "192635.362500",
          "192637.370000",
          "192639.377500",
          "192641.385000",
          "192643.392500",
          "192645.402500",
          "192647.410000",
          "192649.417500",
          "192651.425000",
          "192653.435000",
          "192655.442500",
          "192657.450000",
          "192659.457500",
          "192701.465000",
          "192703.475000",
          "192705.482500",
          "192707.490000",
          "192709.497500",
          "192711.505000",
          "192713.515000",
          "192715.522500"
        ],
        "ContentTime": [
          "192233.812000",
          "192233.812000",
          "192233.812000",
          "192233.812000",
          "192233.812000",
          "192233.828000",
          "192233.843000",
          "192233.843000",
          "192233.843000",
          "192233.843000",
          "192233.843000",
          "192233.843000",
          "192233.843000",
          "192233.859000",
          "192233.859000",
          "192233.859000",
          "192233.859000",
          "192233.875000",
          "192233.875000",
          "192233.875000",
          "192233.875000",
          "192233.875000",
          "192313.796000",
          "192313.796000",
          "192313.796000",
          "192313.812000",
          "192313.812000",
          "192313.812000",
          "192313.812000",
          "192313.828000",
          "192313.828000",
          "192313.828000",
          "192313.828000",
          "192313.843000",
          "192313.843000",
          "192313.843000",
          "192313.843000",
          "192313.843000",
          "192313.859000",
          "192313.859000",
          "192313.859000",
          "192313.859000",
          "192353.796000",
          "192353.796000",
          "192353.796000",
          "192353.812000",
          "192353.812000",
          "192353.812000",
          "192353.812000",
          "192353.812000",
          "192353.812000",
          "192353.828000",
          "192353.828000",
          "192353.828000",
          "192353.828000",
          "192353.843000",
          "192353.843000",
          "192353.843000",
          "192353.843000",
          "192353.843000",
          "192353.859000",
          "192353.859000",
          "192433.796000",
          "192433.796000",
          "192433.796000",
          "192433.812000",
          "192433.812000",
          "192433.812000",
          "192433.812000",
          "192433.812000",
          "192433.828000",
          "192433.828000",
          "192433.828000",
          "192433.828000",
          "192433.828000",
          "192433.828000",
          "192433.843000",
          "192433.843000",
          "192433.843000",
          "192433.843000",
          "192433.843000",
          "192433.843000",
          "192513.796000",
          "192513.796000",
          "192513.796000",
          "192513.812000",
          "192513.812000",
          "192513.812000",
          "192513.812000",
          "192513.812000",
          "192513.828000",
          "192513.828000",
          "192513.828000",
          "192513.828000",
          "192513.828000",
          "192513.828000",
          "192513.843000",
          "192513.843000",
          "192513.843000",
          "192513.843000",
          "192513.843000",
          "192513.843000",
          "192553.796000",
          "192553.796000",
          "192553.796000",
          "192553.812000",
          "192553.812000",
          "192553.812000",
          "192553.812000",
          "192553.812000",
          "192553.812000",
          "192553.812000",
          "192553.828000",
          "192553.828000",
          "192553.828000",
          "192553.828000",
          "192553.828000",
          "192553.828000",
          "192553.828000",
          "192553.843000",
          "192553.843000",
          "192553.843000",
          "192633.796000",
          "192633.796000",
          "192633.796000",
          "192633.812000",
          "192633.812000",
          "192633.812000",
          "192633.921000",
          "192633.921000",
          "192633.921000",
          "192633.921000",
          "192633.921000",
          "192633.937000",
          "192633.937000",
          "192633.937000",
          "192633.937000",
          "192633.937000",
          "192633.937000",
          "192633.953000",
          "192633.953000",
          "192633.953000",
          "192713.796000",
          "192713.796000",
          "192713.796000",
          "192713.812000",
          "192713.812000",
          "192713.812000",
          "192713.812000",
          "192713.828000",
          "192713.828000",
          "192713.828000",
          "192713.828000",
          "192713.828000",
          "192713.828000",
          "192713.843000",
          "192713.843000",
          "192713.843000",
          "192713.843000",
          "192713.843000",
          "192713.843000",
          "192713.859000",
          "192716.156000",
          "192716.156000"
        ],
        "InstanceCreationTime": [
          "192233.812000",
          "192233.812000",
          "192233.812000",
          "192233.812000",
          "192233.812000",
          "192233.828000",
          "192233.843000",
          "192233.843000",
          "192233.843000",
          "192233.843000",
          "192233.843000",
          "192233.843000",
          "192233.843000",
          "192233.859000",
          "192233.859000",
          "192233.859000",
          "192233.859000",
          "192233.875000",
          "192233.875000",
          "192233.875000",
          "192233.875000",
          "192233.875000",
          "192313.796000",
          "192313.796000",
          "192313.796000",
          "192313.812000",
          "192313.812000",
          "192313.812000",
          "192313.812000",
          "192313.828000",
          "192313.828000",
          "192313.828000",
          "192313.828000",
          "192313.843000",
          "192313.843000",
          "192313.843000",
          "192313.843000",
          "192313.843000",
          "192313.859000",
          "192313.859000",
          "192313.859000",
          "192313.859000",
          "192353.796000",
          "192353.796000",
          "192353.796000",
          "192353.812000",
          "192353.812000",
          "192353.812000",
          "192353.812000",
          "192353.812000",
          "192353.812000",
          "192353.828000",
          "192353.828000",
          "192353.828000",
          "192353.828000",
          "192353.843000",
          "192353.843000",
          "192353.843000",
          "192353.843000",
          "192353.843000",
          "192353.859000",
          "192353.859000",
          "192433.796000",
          "192433.796000",
          "192433.796000",
          "192433.812000",
          "192433.812000",
          "192433.812000",
          "192433.812000",
          "192433.812000",
          "192433.828000",
          "192433.828000",
          "192433.828000",
          "192433.828000",
          "192433.828000",
          "192433.828000",
          "192433.843000",
          "192433.843000",
          "192433.843000",
          "192433.843000",
          "192433.843000",
          "192433.843000",
          "192513.796000",
          "192513.796000",
          "192513.796000",
          "192513.812000",
          "192513.812000",
          "192513.812000",
          "192513.812000",
          "192513.812000",
          "192513.828000",
          "192513.828000",
          "192513.828000",
          "192513.828000",
          "192513.828000",
          "192513.828000",
          "192513.843000",
          "192513.843000",
          "192513.843000",
          "192513.843000",
          "192513.843000",
          "192513.843000",
          "192553.796000",
          "192553.796000",
          "192553.796000",
          "192553.812000",
          "192553.812000",
          "192553.812000",
          "192553.812000",
          "192553.812000",
          "192553.812000",
          "192553.812000",
          "192553.828000",
          "192553.828000",
          "192553.828000",
          "192553.828000",
          "192553.828000",
          "192553.828000",
          "192553.828000",
          "192553.843000",
          "192553.843000",
          "192553.843000",
          "192633.796000",
          "192633.796000",
          "192633.796000",
          "192633.812000",
          "192633.812000",
          "192633.812000",
          "192633.921000",
          "192633.921000",
          "192633.921000",
          "192633.921000",
          "192633.921000",
          "192633.937000",
          "192633.937000",
          "192633.937000",
          "192633.937000",
          "192633.937000",
          "192633.937000",
          "192633.953000",
          "192633.953000",
          "192633.953000",
          "192713.796000",
          "192713.796000",
          "192713.796000",
          "192713.812000",
          "192713.812000",
          "192713.812000",
          "192713.812000",
          "192713.828000",
          "192713.828000",
          "192713.828000",
          "192713.828000",
          "192713.828000",
          "192713.828000",
          "192713.843000",
          "192713.843000",
          "192713.843000",
          "192713.843000",
          "192713.843000",
          "192713.843000",
          "192713.859000",
          "192716.156000",
          "192716.156000"
        ],
        "InstanceNumber": [
          1,
          2,
          3,
          4,
          5,
          6,
          7,
          8,
          9,
          10,
          11,
          12,
          13,
          14,
          15,
          16,
          17,
          18,
          19,
          20,
          21,
          22,
          23,
          24,
          25,
          26,
          27,
          28,
          29,
          30,
          31,
          32,
          33,
          34,
          35,
          36,
          37,
          38,
          39,
          40,
          41,
          42,
          43,
          44,
          45,
          46,
          47,
          48,
          49,
          50,
          51,
          52,
          53,
          54,
          55,
          56,
          57,
          58,
          59,
          60,
          61,
          62,
          63,
          64,
          65,
          66,
          67,
          68,
          69,
          70,
          71,
          72,
          73,
          74,
          75,
          76,
          77,
          78,
          79,
          80,
          81,
          82,
          83,
          84,
          85,
          86,
          87,
          88,
          89,
          90,
          91,
          92,
          93,
          94,
          95,
          96,
          97,
          98,
          99,
          100,
          101,
          102,
          103,
          104,
          105,
          106,
          107,
          108,
          109,
          110,
          111,
          112,
          113,
          114,
          115,
          116,
          117,
          118,
          119,
          120,
          121,
          122,
          123,
          124,
          125,
          126,
          127,
          128,
          129,
          130,
          131,
          132,
          133,
          134,
          135,
          136,
          137,
          138,
          139,
          140,
          141,
          142,
          143,
          144,
          145,
          146,
          147,
          148,
          149,
          150,
          151,
          152,
          153,
          154,
          155,
          156,
          157,
          158,
          159,
          160,
          161,
          162,
          163,
          164
        ],
        "WindowCenter": [
          1229.0,
          1227.0,
          1230.0,
          1230.0,
          1226.0,
          1226.0,
          1227.0,
          1228.0,
          1230.0,
          1228.0,
          1226.0,
          1225.0,
          1226.0,
          1226.0,
          1227.0,
          1229.0,
          1229.0,
          1227.0,
          1226.0,
          1227.0,
          1229.0,
          1229.0,
          1227.0,
          1226.0,
          1225.0,
          1225.0,
          1226.0,
          1226.0,
          1229.0,
          1230.0,
          1230.0,
          1227.0,
          1223.0,
          1222.0,
          1223.0,
          1226.0,
          1226.0,
          1226.0,
          1226.0,
          1225.0,
          1225.0,
          1226.0,
          1228.0,
          1229.0,
          1230.0,
          1229.0,
          1228.0,
          1227.0,
          1228.0,
          1231.0,
          1232.0,
          1230.0,
          1228.0,
          1229.0,
          1230.0,
          1229.0,
          1230.0,
          1229.0,
          1228.0,
          1227.0,
          1228.0,
          1228.0,
          1228.0,
          1229.0,
          1229.0,
          1228.0,
          1227.0,
          1228.0,
          1229.0,
          1227.0,
          1227.0,
          1228.0,
          1228.0,
          1229.0,
          1230.0,
          1230.0,
          1231.0,
          1230.0,
          1230.0,
          1229.0,
          1229.0,
          1229.0,
          1228.0,
          1229.0,
          1229.0,
          1227.0,
          1225.0,
          1223.0,
          1225.0,
          1227.0,
          1228.0,
          1229.0,
          1225.0,
          1224.0,
          1226.0,
          1226.0,
          1226.0,
          1225.0,
          1226.0,
          1227.0,
          1227.0,
          1226.0,
          1225.0,
          1223.0,
          1224.0,
          1227.0,
          1229.0,
          1231.0,
          1230.0,
          1229.0,
          1228.0,
          1230.0,
          1227.0,
          1225.0,
          1222.0,
          1224.0,
          1221.0,
          1217.0,
          1218.0,
          1221.0,
          1222.0,
          1226.0,
          1225.0,
          1226.0,
          1228.0,
          1229.0,
          1229.0,
          1231.0,
          1233.0,
          1233.0,
          1229.0,
          1226.0,
          1227.0,
          1229.0,
          1231.0,
          1231.0,
          1228.0,
          1227.0,
          1226.0,
          1228.0,
          1229.0,
          1228.0,
          1225.0,
          1225.0,
          1225.0,
          1224.0,
          1224.0,
          1226.0,
          1228.0,
          1228.0,
          1228.0,
          1229.0,
          1230.0,
          1229.0,
          1228.0,
          1227.0,
          1231.0,
          1232.0,
          1229.0,
          1224.0,
          1222.0,
          1224.0,
          1227.0,
          1228.0
        ],
        "WindowWidth": [
          2930.0,
          2928.0,
          2937.0,
          2934.0,
          2924.0,
          2922.0,
          2927.0,
          2931.0,
          2930.0,
          2926.0,
          2922.0,
          2920.0,
          2925.0,
          2924.0,
          2930.0,
          2931.0,
          2928.0,
          2926.0,
          2922.0,
          2928.0,
          2934.0,
          2931.0,
          2924.0,
          2921.0,
          2921.0,
          2923.0,
          2922.0,
          2924.0,
          2931.0,
          2934.0,
          2936.0,
          2926.0,
          2919.0,
          2916.0,
          2920.0,
          2924.0,
          2925.0,
          2924.0,
          2923.0,
          2925.0,
          2923.0,
          2924.0,
          2929.0,
          2931.0,
          2931.0,
          2929.0,
          2927.0,
          2928.0,
          2929.0,
          2937.0,
          2938.0,
          2934.0,
          2931.0,
          2930.0,
          2935.0,
          2935.0,
          2932.0,
          2932.0,
          2928.0,
          2928.0,
          2930.0,
          2929.0,
          2931.0,
          2931.0,
          2932.0,
          2929.0,
          2929.0,
          2931.0,
          2931.0,
          2929.0,
          2929.0,
          2929.0,
          2932.0,
          2933.0,
          2934.0,
          2934.0,
          2935.0,
          2935.0,
          2933.0,
          2931.0,
          2932.0,
          2932.0,
          2930.0,
