{
  "aor": 0.0013824390243902438,
  "aqi": 0.004927245853658536,
  "bids_meta": {
    "AcquisitionMatrixPE": 96,
    "AcquisitionNumber": 1,
    "AcquisitionTime": "19:28:12.752500",
    "BandwidthPerPixelPhaseEncode": 52.083,
    "BaseResolution": 96,
    "BodyPartExamined": "HEAD",
    "ConversionSoftware": "dcm2niix",
    "ConversionSoftwareVersion": "v1.0.20180622 GCC6.3.0",
    "DerivedVendorReportedEchoSpacing": 0.000600004,
    "DeviceSerialNumber": "18926",
    "DwellTime": 2.6e-06,
    "EchoTime": 0.025,
    "EffectiveEchoSpacing": 0.000200001,
    "FlipAngle": 50,
    "ImageOrientationPatientDICOM": [
      0.999992,
      0.000789945,
      0.00402739,
      2.04197e-10,
      0.981302,
      -0.192476
    ],
    "ImageType": [
      "ORIGINAL",
      "PRIMARY",
      "M",
      "ND",
      "ECHO",
      "00",
      "MOSAIC"
    ],
    "InPlanePhaseEncodingDirectionDICOM": "ROW",
    "InstitutionName": "NIMH",
    "InstitutionalDepartmentName": "Department",
    "MRAcquisitionType": "2D",
    "MagneticFieldStrength": 6.98,
    "Manufacturer": "Siemens",
    "ManufacturersModelName": "Investigational_Device_7T",
    "Modality": "MR",
    "ParallelReductionFactorInPlane": 3,
    "PartialFourier": 1,
    "PatientPosition": "HFS",
    "PercentPhaseFOV": 100,
    "PhaseEncodingDirection": "i",
    "PhaseEncodingSteps": 94,
    "PhaseResolution": 1,
    "PixelBandwidth": 2003,
    "ProcedureStepDescription": "MRI_Brain",
    "ProtocolName": "NIH_EPI_2.0iso_TR2_Run07",
    "PulseSequenceDetails": "%CustomerSeq%_inati_nih_epi",
    "ReceiveCoilName": "32Ch_Head_7T",
    "ReconMatrixPE": 96,
    "RepetitionTime": 2,
    "SAR": 0.0815459,
    "ScanningSequence": "EP",
    "SequenceName": "epfid2d1_96",
    "SequenceVariant": "SK",
    "SeriesDescription": "NIH_EPI_2.0iso_TR2_Run07",
    "SeriesNumber": 11,
    "ShimSetting": [
      -52,
      147,
      883,
      1279,
      -152,
      463,
      179,
      -443
    ],
    "SliceThickness": 2,
    "SliceTiming": [
      1.005,
      0,
      1.0425,
      0.0375,
      1.08,
      0.075,
      1.1175,
      0.1125,
      1.155,
      0.15,
      1.19,
      0.1875,
      1.2275,
      0.225,
      1.265,
      0.2625,
      1.3025,
      0.2975,
      1.34,
      0.335,
      1.3775,
      0.3725,
      1.415,
      0.41,
      1.45,
      0.4475,
      1.4875,
      0.485,
      1.525,
      0.5225,
      1.5625,
      0.56,
      1.6,
      0.595,
      1.6375,
      0.6325,
      1.675,
      0.67,
      1.7125,
      0.7075,
      1.7475,
      0.745,
      1.785,
      0.7825,
      1.8225,
      0.82,
      1.86,
      0.8575,
      1.8975,
      0.8925,
      1.935,
      0.93,
      1.9725,
      0.9675
    ],
    "SoftwareVersions": "syngo_MR_B17",
    "SpacingBetweenSlices": 2,
    "StationName": "FMRIFD7T",
    "TaskName": "HalfFovNoTask",
    "TotalReadoutTime": 0.0190001,
    "TxRefAmp": 326,
    "dataset": "ds001555",
    "dcmmeta_affine": [
      [
        -1.9999831914901733,
        4.0839379100710005e-10,
        0.008208253420889378,
        95.76705169677734
      ],
      [
        -0.0015798897948116064,
        1.9626034498214722,
        -0.38494834303855896,
        -56.340240478515625
      ],
      [
        0.008054773323237896,
        0.3849515914916992,
        1.9625868797302246,
        -42.00886535644531
      ],
      [
        0.0,
        0.0,
        0.0,
        1.0
      ]
    ],
    "dcmmeta_reorient_transform": [
      [
        0.0,
        -1.0,
        0.0,
        95.0
      ],
      [
        1.0,
        0.0,
        0.0,
        0.0
      ],
      [
        0.0,
        0.0,
        1.0,
        0.0
      ],
      [
        0.0,
        0.0,
        0.0,
        1.0
      ]
    ],
    "dcmmeta_shape": [
      96,
      96,
      54,
      164
    ],
    "dcmmeta_slice_dim": 2,
    "dcmmeta_version": 0.6,
    "global": {
      "const": {
        "AcquisitionMatrix": [
          0,
          96,
          96,
          0
        ],
        "Allergies": "No Known Allergies",
        "AngioFlag": "N",
        "BitsAllocated": 16,
        "BitsStored": 12,
        "BodyPartExamined": "HEAD",
        "Columns": 768,
        "EchoNumbers": 1,
        "EchoTime": 25.0,
        "EchoTrainLength": 1,
        "FlipAngle": 50.0,
        "HighBit": 11,
        "ImageOrientationPatient": [
          0.99999157803654,
          0.00078994487055,
          0.00402738663197,
          2.041969e-10,
          0.98130172034061,
          -0.1924758001842
        ],
        "ImagePositionPatient": [
          -767.7613927697,
          -790.07268519809,
          121.19887111008
        ],
        "ImageType": [
          "ORIGINAL",
          "PRIMARY",
          "M",
          "ND",
          "ECHO_00",
          "MOSAIC"
        ],
        "ImagedNucleus": "1H",
        "ImagingFrequency": 297.204932,
        "InPlanePhaseEncodingDirection": "ROW",
        "LargestImagePixelValue": 4095,
        "MRAcquisitionType": "2D",
        "MagneticFieldStrength": 6.98,
        "Manufacturer": "SIEMENS",
        "ManufacturerModelName": "Investigational_Device_7T",
        "Modality": "MR",
        "NumberOfAverages": 1.0,
        "NumberOfPhaseEncodingSteps": 94,
        "PercentPhaseFieldOfView": 100.0,
        "PercentSampling": 100.0,
        "PerformedProcedureStepStartTime": "183342.484000",
        "PhotometricInterpretation": "MONOCHROME2",
        "PixelBandwidth": 2003.0,
        "PixelRepresentation": 0,
        "PixelSpacing": [
          2.0,
          2.0
        ],
        "PositionReferenceIndicator": "",
        "ProcedureCodeSequence": [
          {
            "CodeMeaning": "MRI Brain",
            "CodeValue": "MI01417",
            "CodingSchemeDesignator": "USA Standard",
            "ContextIdentifier": "4000120207"
          }
        ],
        "ProtocolName": "NIH_EPI_2.0iso_TR2_Run07",
        "ReferencedStudySequence": [
          {
            "ReferencedSOPClassUID": "1.2.840.10008.3.1.2.3.1",
            "ReferencedSOPInstanceUID": "1.2.840.113564.9.1.2723958737.61.2.5000086038"
          }
        ],
        "RepetitionTime": 2000.0,
        "RequestedProcedureCodeSequence": [
          {
            "CodeMeaning": "MRI Brain",
            "CodeValue": "MI01417",
            "CodingSchemeDesignator": "USA Standard",
            "ContextIdentifier": "4000120207"
          }
        ],
        "RequestingService": "NIHM Molecular Imaging Branch",
        "Rows": 768,
        "SAR": 0.08154586538278,
        "SamplesPerPixel": 1,
        "ScanningSequence": "EP",
        "SequenceName": "epfid2d1_96",
        "SequenceVariant": "SK",
        "SeriesDescription": "NIH_EPI_2.0iso_TR2_Run07",
        "SeriesNumber": 11,
        "SliceLocation": -29.98594245138,
        "SliceThickness": 2.0,
        "SmallestImagePixelValue": 0,
        "SoftwareVersions": "syngo MR B17",
        "SpacingBetweenSlices": 1.9999999763491,
        "TransmitCoilName": "32Ch_Head_7T",
        "VariableFlipAngleFlag": "N",
        "WindowCenterWidthExplanation": "Algo1",
        "dBdt": 0.0
      },
      "slices": {}
    },
    "modality": "bold",
    "run_id": 8,
    "session_id": "07",
    "subject_id": "001",
    "task_id": "HalfFovNoTask",
    "time": {
      "samples": {
        "AcquisitionNumber": [
          1,
          2,
          3,
          4,
          5,
          6,
          7,
          8,
          9,
          10,
          11,
          12,
          13,
          14,
          15,
          16,
          17,
          18,
          19,
          20,
          21,
          22,
          23,
          24,
          25,
          26,
          27,
          28,
          29,
          30,
          31,
          32,
          33,
          34,
          35,
          36,
          37,
          38,
          39,
          40,
          41,
          42,
          43,
          44,
          45,
          46,
          47,
          48,
          49,
          50,
          51,
          52,
          53,
          54,
          55,
          56,
          57,
          58,
          59,
          60,
          61,
          62,
          63,
          64,
          65,
          66,
          67,
          68,
          69,
          70,
          71,
          72,
          73,
          74,
          75,
          76,
          77,
          78,
          79,
          80,
          81,
          82,
          83,
          84,
          85,
          86,
          87,
          88,
          89,
          90,
          91,
          92,
          93,
          94,
          95,
          96,
          97,
          98,
          99,
          100,
          101,
          102,
          103,
          104,
          105,
          106,
          107,
          108,
          109,
          110,
          111,
          112,
          113,
          114,
          115,
          116,
          117,
          118,
          119,
          120,
          121,
          122,
          123,
          124,
          125,
          126,
          127,
          128,
          129,
          130,
          131,
          132,
          133,
          134,
          135,
          136,
          137,
          138,
          139,
          140,
          141,
          142,
          143,
          144,
          145,
          146,
          147,
          148,
          149,
          150,
          151,
          152,
          153,
          154,
          155,
          156,
          157,
          158,
          159,
          160,
          161,
          162,
          163,
          164
        ],
        "AcquisitionTime": [
          "192812.752500",
          "192816.767500",
          "192818.777500",
          "192820.785000",
          "192822.792500",
          "192824.800000",
          "192826.810000",
          "192828.817500",
          "192830.825000",
          "192832.832500",
          "192834.840000",
          "192836.850000",
          "192838.857500",
          "192840.865000",
          "192842.872500",
          "192844.880000",
          "192846.890000",
          "192848.897500",
          "192850.905000",
          "192852.912500",
          "192854.920000",
          "192856.930000",
          "192858.937500",
          "192900.945000",
          "192902.952500",
          "192904.962500",
          "192906.970000",
          "192908.977500",
          "192910.985000",
          "192912.992500",
          "192915.002500",
          "192917.010000",
          "192919.017500",
          "192921.025000",
          "192923.032500",
          "192925.042500",
          "192927.050000",
          "192929.057500",
          "192931.065000",
          "192933.075000",
          "192935.082500",
          "192937.090000",
          "192939.097500",
          "192941.105000",
          "192943.115000",
          "192945.122500",
          "192947.130000",
          "192949.137500",
          "192951.145000",
          "192953.155000",
          "192955.162500",
          "192957.170000",
          "192959.177500",
          "193001.187500",
          "193003.195000",
          "193005.202500",
          "193007.210000",
          "193009.217500",
          "193011.227500",
          "193013.235000",
          "193015.242500",
          "193017.250000",
          "193019.257500",
          "193021.267500",
          "193023.275000",
          "193025.282500",
          "193027.290000",
          "193029.297500",
          "193031.307500",
          "193033.315000",
          "193035.322500",
          "193037.330000",
          "193039.340000",
          "193041.347500",
          "193043.355000",
          "193045.362500",
          "193047.370000",
          "193049.380000",
          "193051.387500",
          "193053.395000",
          "193055.402500",
          "193057.410000",
          "193059.420000",
          "193101.427500",
          "193103.435000",
          "193105.442500",
          "193107.452500",
          "193109.460000",
          "193111.467500",
          "193113.475000",
          "193115.482500",
          "193117.492500",
          "193119.500000",
          "193121.507500",
          "193123.515000",
          "193125.522500",
          "193127.532500",
          "193129.540000",
          "193131.547500",
          "193133.555000",
          "193135.565000",
          "193137.572500",
          "193139.580000",
          "193141.587500",
          "193143.595000",
          "193145.605000",
          "193147.612500",
          "193149.620000",
          "193151.627500",
          "193153.635000",
          "193155.645000",
          "193157.652500",
          "193159.660000",
          "193201.667500",
          "193203.675000",
          "193205.685000",
          "193207.692500",
          "193209.700000",
          "193211.707500",
          "193213.717500",
          "193215.725000",
          "193217.732500",
          "193219.740000",
          "193221.747500",
          "193223.757500",
          "193225.765000",
          "193227.772500",
          "193229.780000",
          "193231.787500",
          "193233.797500",
          "193235.805000",
          "193237.812500",
          "193239.820000",
          "193241.830000",
          "193243.837500",
          "193245.845000",
          "193247.852500",
          "193249.860000",
          "193251.870000",
          "193253.877500",
          "193255.885000",
          "193257.892500",
          "193259.900000",
          "193301.910000",
          "193303.917500",
          "193305.925000",
          "193307.932500",
          "193309.942500",
          "193311.950000",
          "193313.957500",
          "193315.965000",
          "193317.972500",
          "193319.982500",
          "193321.990000",
          "193323.997500",
          "193326.005000",
          "193328.012500",
          "193330.022500",
          "193332.030000",
          "193334.037500",
          "193336.045000",
          "193338.052500",
          "193340.062500",
          "193342.070000"
        ],
        "ContentTime": [
          "192910.296000",
          "192910.296000",
          "192910.296000",
          "192910.296000",
          "192910.312000",
          "192910.312000",
          "192910.312000",
          "192910.312000",
          "192910.312000",
          "192910.328000",
          "192910.328000",
          "192910.328000",
          "192910.328000",
          "192910.328000",
          "192910.328000",
          "192910.328000",
          "192910.343000",
          "192910.343000",
          "192910.343000",
          "192910.343000",
          "192910.343000",
          "192910.359000",
          "192910.359000",
          "192910.359000",
          "192910.359000",
          "192910.359000",
          "192910.359000",
          "192950.281000",
          "192950.281000",
          "192950.281000",
          "192950.296000",
          "192950.296000",
          "192950.296000",
          "192950.296000",
          "192950.296000",
          "192950.296000",
          "192950.296000",
          "192950.312000",
          "192950.312000",
          "192950.312000",
          "192950.312000",
          "192950.312000",
          "192950.312000",
          "192950.312000",
          "192950.328000",
          "192950.328000",
          "192950.328000",
          "193030.281000",
          "193030.281000",
          "193030.281000",
          "193030.296000",
          "193030.296000",
          "193030.296000",
          "193030.296000",
          "193030.296000",
          "193030.296000",
          "193030.296000",
          "193030.312000",
          "193030.312000",
          "193030.312000",
          "193030.328000",
          "193030.328000",
          "193030.328000",
          "193030.328000",
          "193030.328000",
          "193030.328000",
          "193030.343000",
          "193110.281000",
          "193110.281000",
          "193110.296000",
          "193110.296000",
          "193110.296000",
          "193110.296000",
          "193110.296000",
          "193110.312000",
          "193110.312000",
          "193110.312000",
          "193110.312000",
          "193110.328000",
          "193110.328000",
          "193110.328000",
          "193110.328000",
          "193110.328000",
          "193110.343000",
          "193110.343000",
          "193110.343000",
          "193110.343000",
          "193150.281000",
          "193150.296000",
          "193150.296000",
          "193150.296000",
          "193150.296000",
          "193150.296000",
          "193150.296000",
          "193150.296000",
          "193150.312000",
          "193150.312000",
          "193150.312000",
          "193150.312000",
          "193150.312000",
          "193150.312000",
          "193150.328000",
          "193150.328000",
          "193150.328000",
          "193150.328000",
          "193150.328000",
          "193150.328000",
          "193230.281000",
          "193230.281000",
          "193230.296000",
          "193230.296000",
          "193230.296000",
          "193230.296000",
          "193230.296000",
          "193230.312000",
          "193230.312000",
          "193230.312000",
          "193230.312000",
          "193230.328000",
          "193230.328000",
          "193230.328000",
          "193230.328000",
          "193230.328000",
          "193230.328000",
          "193230.343000",
          "193230.343000",
          "193230.343000",
          "193310.281000",
          "193310.281000",
          "193310.296000",
          "193310.296000",
          "193310.296000",
          "193310.296000",
          "193310.296000",
          "193310.312000",
          "193310.312000",
          "193310.312000",
          "193310.312000",
          "193310.312000",
          "193310.312000",
          "193310.312000",
          "193310.328000",
          "193310.328000",
          "193310.328000",
          "193310.328000",
          "193310.328000",
          "193310.328000",
          "193342.750000",
          "193342.750000",
          "193342.750000",
          "193342.750000",
          "193342.750000",
          "193342.750000",
          "193342.765000",
          "193342.765000",
          "193342.765000",
          "193342.765000",
          "193342.765000",
          "193342.765000",
          "193342.765000",
          "193342.781000",
          "193342.781000",
          "193342.781000",
          "193342.781000"
        ],
        "InstanceCreationTime": [
          "192910.296000",
          "192910.296000",
          "192910.296000",
          "192910.296000",
          "192910.312000",
          "192910.312000",
          "192910.312000",
          "192910.312000",
          "192910.312000",
          "192910.328000",
          "192910.328000",
          "192910.328000",
          "192910.328000",
          "192910.328000",
          "192910.328000",
          "192910.328000",
          "192910.343000",
          "192910.343000",
          "192910.343000",
          "192910.343000",
          "192910.343000",
          "192910.359000",
          "192910.359000",
          "192910.359000",
          "192910.359000",
          "192910.359000",
          "192910.359000",
          "192950.281000",
          "192950.281000",
          "192950.281000",
          "192950.296000",
          "192950.296000",
          "192950.296000",
          "192950.296000",
          "192950.296000",
          "192950.296000",
          "192950.296000",
          "192950.312000",
          "192950.312000",
          "192950.312000",
          "192950.312000",
          "192950.312000",
          "192950.312000",
          "192950.312000",
          "192950.328000",
          "192950.328000",
          "192950.328000",
          "193030.281000",
          "193030.281000",
          "193030.281000",
          "193030.296000",
          "193030.296000",
          "193030.296000",
          "193030.296000",
          "193030.296000",
          "193030.296000",
          "193030.296000",
          "193030.312000",
          "193030.312000",
          "193030.312000",
          "193030.328000",
          "193030.328000",
          "193030.328000",
          "193030.328000",
          "193030.328000",
          "193030.328000",
          "193030.343000",
          "193110.281000",
          "193110.281000",
          "193110.296000",
          "193110.296000",
          "193110.296000",
          "193110.296000",
          "193110.296000",
          "193110.312000",
          "193110.312000",
          "193110.312000",
          "193110.312000",
          "193110.328000",
          "193110.328000",
          "193110.328000",
          "193110.328000",
          "193110.328000",
          "193110.343000",
          "193110.343000",
          "193110.343000",
          "193110.343000",
          "193150.281000",
          "193150.296000",
          "193150.296000",
          "193150.296000",
          "193150.296000",
          "193150.296000",
          "193150.296000",
          "193150.296000",
          "193150.312000",
          "193150.312000",
          "193150.312000",
          "193150.312000",
          "193150.312000",
          "193150.312000",
          "193150.328000",
          "193150.328000",
          "193150.328000",
          "193150.328000",
          "193150.328000",
          "193150.328000",
          "193230.281000",
          "193230.281000",
          "193230.296000",
          "193230.296000",
          "193230.296000",
          "193230.296000",
          "193230.296000",
          "193230.312000",
          "193230.312000",
          "193230.312000",
          "193230.312000",
          "193230.328000",
          "193230.328000",
          "193230.328000",
          "193230.328000",
          "193230.328000",
          "193230.328000",
          "193230.343000",
          "193230.343000",
          "193230.343000",
          "193310.281000",
          "193310.281000",
          "193310.296000",
          "193310.296000",
          "193310.296000",
          "193310.296000",
          "193310.296000",
          "193310.312000",
          "193310.312000",
          "193310.312000",
          "193310.312000",
          "193310.312000",
          "193310.312000",
          "193310.312000",
          "193310.328000",
          "193310.328000",
          "193310.328000",
          "193310.328000",
          "193310.328000",
          "193310.328000",
          "193342.750000",
          "193342.750000",
          "193342.750000",
          "193342.750000",
          "193342.750000",
          "193342.750000",
          "193342.765000",
          "193342.765000",
          "193342.765000",
          "193342.765000",
          "193342.765000",
          "193342.765000",
          "193342.765000",
          "193342.781000",
          "193342.781000",
          "193342.781000",
          "193342.781000"
        ],
        "InstanceNumber": [
          1,
          2,
          3,
          4,
          5,
          6,
          7,
          8,
          9,
          10,
          11,
          12,
          13,
          14,
          15,
          16,
          17,
          18,
          19,
          20,
          21,
          22,
          23,
          24,
          25,
          26,
          27,
          28,
          29,
          30,
          31,
          32,
          33,
          34,
          35,
          36,
          37,
          38,
          39,
          40,
          41,
          42,
          43,
          44,
          45,
          46,
          47,
          48,
          49,
          50,
          51,
          52,
          53,
          54,
          55,
          56,
          57,
          58,
          59,
          60,
          61,
          62,
          63,
          64,
          65,
          66,
          67,
          68,
          69,
          70,
          71,
          72,
          73,
          74,
          75,
          76,
          77,
          78,
          79,
          80,
          81,
          82,
          83,
          84,
          85,
          86,
          87,
          88,
          89,
          90,
          91,
          92,
          93,
          94,
          95,
          96,
          97,
          98,
          99,
          100,
          101,
          102,
          103,
          104,
          105,
          106,
          107,
          108,
          109,
          110,
          111,
          112,
          113,
          114,
          115,
          116,
          117,
          118,
          119,
          120,
          121,
          122,
          123,
          124,
          125,
          126,
          127,
          128,
          129,
          130,
          131,
          132,
          133,
          134,
          135,
          136,
          137,
          138,
          139,
          140,
          141,
          142,
          143,
          144,
          145,
          146,
          147,
          148,
          149,
          150,
          151,
          152,
          153,
          154,
          155,
          156,
          157,
          158,
          159,
          160,
          161,
          162,
          163,
          164
        ],
        "WindowCenter": [
          1230.0,
          1230.0,
          1232.0,
          1231.0,
          1227.0,
          1227.0,
          1227.0,
          1229.0,
          1230.0,
          1231.0,
          1232.0,
          1232.0,
          1232.0,
          1234.0,
          1234.0,
          1234.0,
          1231.0,
          1228.0,
          1228.0,
          1231.0,
          1232.0,
          1233.0,
          1231.0,
          1229.0,
          1229.0,
          1229.0,
          1227.0,
          1226.0,
          1224.0,
          1225.0,
          1227.0,
          1227.0,
          1226.0,
          1227.0,
          1228.0,
          1227.0,
          1227.0,
          1227.0,
          1226.0,
          1228.0,
          1228.0,
          1227.0,
          1226.0,
          1224.0,
          1225.0,
          1226.0,
          1226.0,
          1226.0,
          1228.0,
          1228.0,
          1227.0,
          1227.0,
          1228.0,
          1229.0,
          1229.0,
          1229.0,
          1230.0,
          1230.0,
          1232.0,
          1232.0,
          1231.0,
          1230.0,
          1229.0,
          1227.0,
          1227.0,
          1229.0,
          1229.0,
          1231.0,
          1230.0,
          1228.0,
          1228.0,
          1232.0,
          1235.0,
          1235.0,
          1231.0,
          1227.0,
          1228.0,
          1232.0,
          1234.0,
          1230.0,
          1227.0,
          1229.0,
          1229.0,
          1227.0,
          1226.0,
          1226.0,
          1229.0,
          1230.0,
          1230.0,
          1230.0,
          1229.0,
          1228.0,
          1229.0,
          1229.0,
          1227.0,
          1227.0,
          1231.0,
          1233.0,
          1231.0,
          1228.0,
          1230.0,
          1232.0,
          1234.0,
          1232.0,
          1230.0,
          1231.0,
          1231.0,
          1232.0,
          1233.0,
          1234.0,
          1236.0,
          1234.0,
          1232.0,
          1234.0,
          1236.0,
          1235.0,
          1234.0,
          1233.0,
          1233.0,
          1231.0,
          1230.0,
          1229.0,
          1229.0,
          1230.0,
          1234.0,
          1232.0,
          1233.0,
          1234.0,
          1234.0,
          1233.0,
          1234.0,
          1236.0,
          1235.0,
          1234.0,
          1233.0,
          1232.0,
          1233.0,
          1233.0,
          1234.0,
          1231.0,
          1231.0,
          1232.0,
          1233.0,
          1233.0,
          1231.0,
          1231.0,
          1230.0,
          1231.0,
          1233.0,
          1233.0,
          1230.0,
          1228.0,
          1228.0,
          1230.0,
          1230.0,
          1230.0,
          1230.0,
          1231.0,
          1229.0,
          1228.0,
          1228.0,
          1229.0,
          1231.0,
          1234.0
        ],
        "WindowWidth": [
          2932.0,
          2932.0,
          2936.0,
          2931.0,
          2925.0,
          2924.0,
          2926.0,
          2930.0,
          2933.0,
          2934.0,
          2935.0,
          2935.0,
          2938.0,
          2942.0,
          2943.0,
          2940.0,
          2935.0,
          2928.0,
          2929.0,
          2937.0,
          2937.0,
          2936.0,
          2935.0,
          2932.0,
          2932.0,
          2930.0,
          2924.0,
          2920.0,
          2919.0,
          2920.0,
          2923.0,
          2924.0,
          2922.0,
          2924.0,
          2925.0,
          2924.0,
          2924.0,
          2925.0,
          2922.0,
          2924.0,
          2928.0,
          2923.0,
          2922.0,
          2919.0,
          2918.0,
          2921.0,
          2922.0,
          2925.0,
          2928.0,
          2926.0,
          2922.0,
          2923.0,
          2927.0,
          2930.0,
          2930.0,
          2929.0,
          2932.0,
          2933.0,
          2934.0,
          2935.0,
          2931.0,
          2931.0,
          2929.0,
          2924.0,
          2923.0,
          2927.0,
          2929.0,
          2931.0,
          2928.0,
          2923.0,
          2926.0,
          2932.0,
          2943.0,
          2941.0,
          2926.0,
          2919.0,
          2923.0,
          2937.0,
          2939.0,
          2926.0,
          2921.0,
          2926.0,
          2928.0,
