{
  "aor": 0.0017530487804878047,
  "aqi": 0.005242479146341463,
  "bids_meta": {
    "AcquisitionMatrixPE": 96,
    "AcquisitionNumber": 1,
    "AcquisitionTime": "18:55:0.212500",
    "BandwidthPerPixelPhaseEncode": 52.083,
    "BaseResolution": 96,
    "BodyPartExamined": "HEAD",
    "ConversionSoftware": "dcm2niix",
    "ConversionSoftwareVersion": "v1.0.20180622 GCC6.3.0",
    "DerivedVendorReportedEchoSpacing": 0.000600004,
    "DeviceSerialNumber": "18926",
    "DwellTime": 2.6e-06,
    "EchoTime": 0.025,
    "EffectiveEchoSpacing": 0.000200001,
    "FlipAngle": 50,
    "ImageOrientationPatientDICOM": [
      0.999992,
      0.000789945,
      0.00402739,
      2.04197e-10,
      0.981302,
      -0.192476
    ],
    "ImageType": [
      "ORIGINAL",
      "PRIMARY",
      "M",
      "ND",
      "ECHO",
      "00",
      "MOSAIC"
    ],
    "InPlanePhaseEncodingDirectionDICOM": "ROW",
    "InstitutionName": "NIMH",
    "InstitutionalDepartmentName": "Department",
    "MRAcquisitionType": "2D",
    "MagneticFieldStrength": 6.98,
    "Manufacturer": "Siemens",
    "ManufacturersModelName": "Investigational_Device_7T",
    "Modality": "MR",
    "ParallelReductionFactorInPlane": 3,
    "PartialFourier": 1,
    "PatientPosition": "HFS",
    "PercentPhaseFOV": 100,
    "PhaseEncodingDirection": "i",
    "PhaseEncodingSteps": 94,
    "PhaseResolution": 1,
    "PixelBandwidth": 2003,
    "ProcedureStepDescription": "MRI_Brain",
    "ProtocolName": "NIH_EPI_2.0iso_TR2_Run02",
    "PulseSequenceDetails": "%CustomerSeq%_inati_nih_epi",
    "ReceiveCoilName": "32Ch_Head_7T",
    "ReconMatrixPE": 96,
    "RepetitionTime": 2,
    "SAR": 0.0815459,
    "ScanningSequence": "EP",
    "SequenceName": "epfid2d1_96",
    "SequenceVariant": "SK",
    "SeriesDescription": "NIH_EPI_2.0iso_TR2_Run02",
    "SeriesNumber": 6,
    "ShimSetting": [
      -52,
      147,
      883,
      1279,
      -152,
      463,
      179,
      -443
    ],
    "SliceThickness": 2,
    "SliceTiming": [
      1.005,
      0,
      1.0425,
      0.0375,
      1.08,
      0.075,
      1.1175,
      0.1125,
      1.1525,
      0.15,
      1.19,
      0.1875,
      1.2275,
      0.225,
      1.265,
      0.26,
      1.3025,
      0.2975,
      1.34,
      0.335,
      1.3775,
      0.3725,
      1.415,
      0.41,
      1.45,
      0.4475,
      1.4875,
      0.485,
      1.525,
      0.5225,
      1.5625,
      0.5575,
      1.6,
      0.595,
      1.6375,
      0.6325,
      1.675,
      0.67,
      1.71,
      0.7075,
      1.7475,
      0.745,
      1.785,
      0.7825,
      1.8225,
      0.82,
      1.86,
      0.855,
      1.8975,
      0.8925,
      1.935,
      0.93,
      1.9725,
      0.9675
    ],
    "SoftwareVersions": "syngo_MR_B17",
    "SpacingBetweenSlices": 2,
    "StationName": "FMRIFD7T",
    "TaskName": "HalfFovNoTask",
    "TotalReadoutTime": 0.0190001,
    "TxRefAmp": 326,
    "dataset": "ds001555",
    "dcmmeta_affine": [
      [
        -1.9999831914901733,
        4.0839379100710005e-10,
        0.008208253420889378,
        95.76705169677734
      ],
      [
        -0.0015798897948116064,
        1.9626034498214722,
        -0.38494834303855896,
        -56.340240478515625
      ],
      [
        0.008054773323237896,
        0.3849515914916992,
        1.9625868797302246,
        -42.00886535644531
      ],
      [
        0.0,
        0.0,
        0.0,
        1.0
      ]
    ],
    "dcmmeta_reorient_transform": [
      [
        0.0,
        -1.0,
        0.0,
        95.0
      ],
      [
        1.0,
        0.0,
        0.0,
        0.0
      ],
      [
        0.0,
        0.0,
        1.0,
        0.0
      ],
      [
        0.0,
        0.0,
        0.0,
        1.0
      ]
    ],
    "dcmmeta_shape": [
      96,
      96,
      54,
      164
    ],
    "dcmmeta_slice_dim": 2,
    "dcmmeta_version": 0.6,
    "global": {
      "const": {
        "AcquisitionMatrix": [
          0,
          96,
          96,
          0
        ],
        "Allergies": "No Known Allergies",
        "AngioFlag": "N",
        "BitsAllocated": 16,
        "BitsStored": 12,
        "BodyPartExamined": "HEAD",
        "Columns": 768,
        "EchoNumbers": 1,
        "EchoTime": 25.0,
        "EchoTrainLength": 1,
        "FlipAngle": 50.0,
        "HighBit": 11,
        "ImageOrientationPatient": [
          0.99999157803654,
          0.00078994487055,
          0.00402738663197,
          2.041969e-10,
          0.98130172034061,
          -0.1924758001842
        ],
        "ImagePositionPatient": [
          -767.7613927697,
          -790.07268519809,
          121.19887111008
        ],
        "ImageType": [
          "ORIGINAL",
          "PRIMARY",
          "M",
          "ND",
          "ECHO_00",
          "MOSAIC"
        ],
        "ImagedNucleus": "1H",
        "ImagingFrequency": 297.204823,
        "InPlanePhaseEncodingDirection": "ROW",
        "LargestImagePixelValue": 4095,
        "MRAcquisitionType": "2D",
        "MagneticFieldStrength": 6.98,
        "Manufacturer": "SIEMENS",
        "ManufacturerModelName": "Investigational_Device_7T",
        "Modality": "MR",
        "NumberOfAverages": 1.0,
        "NumberOfPhaseEncodingSteps": 94,
        "PercentPhaseFieldOfView": 100.0,
        "PercentSampling": 100.0,
        "PerformedProcedureStepStartTime": "183342.484000",
        "PhotometricInterpretation": "MONOCHROME2",
        "PixelBandwidth": 2003.0,
        "PixelRepresentation": 0,
        "PixelSpacing": [
          2.0,
          2.0
        ],
        "PositionReferenceIndicator": "",
        "ProcedureCodeSequence": [
          {
            "CodeMeaning": "MRI Brain",
            "CodeValue": "MI01417",
            "CodingSchemeDesignator": "USA Standard",
            "ContextIdentifier": "4000120207"
          }
        ],
        "ProtocolName": "NIH_EPI_2.0iso_TR2_Run02",
        "ReferencedStudySequence": [
          {
            "ReferencedSOPClassUID": "1.2.840.10008.3.1.2.3.1",
            "ReferencedSOPInstanceUID": "1.2.840.113564.9.1.2723958737.61.2.5000086038"
          }
        ],
        "RepetitionTime": 2000.0,
        "RequestedProcedureCodeSequence": [
          {
            "CodeMeaning": "MRI Brain",
            "CodeValue": "MI01417",
            "CodingSchemeDesignator": "USA Standard",
            "ContextIdentifier": "4000120207"
          }
        ],
        "RequestingService": "NIHM Molecular Imaging Branch",
        "Rows": 768,
        "SAR": 0.08154586538278,
        "SamplesPerPixel": 1,
        "ScanningSequence": "EP",
        "SequenceName": "epfid2d1_96",
        "SequenceVariant": "SK",
        "SeriesDescription": "NIH_EPI_2.0iso_TR2_Run02",
        "SeriesNumber": 6,
        "SliceLocation": -29.98594245138,
        "SliceThickness": 2.0,
        "SmallestImagePixelValue": 0,
        "SoftwareVersions": "syngo MR B17",
        "SpacingBetweenSlices": 1.9999999763491,
        "TransmitCoilName": "32Ch_Head_7T",
        "VariableFlipAngleFlag": "N",
        "WindowCenterWidthExplanation": "Algo1",
        "dBdt": 0.0
      },
      "slices": {}
    },
    "modality": "bold",
    "run_id": 3,
    "session_id": "07",
    "subject_id": "001",
    "task_id": "HalfFovNoTask",
    "time": {
      "samples": {
        "AcquisitionNumber": [
          1,
          2,
          3,
          4,
          5,
          6,
          7,
          8,
          9,
          10,
          11,
          12,
          13,
          14,
          15,
          16,
          17,
          18,
          19,
          20,
          21,
          22,
          23,
          24,
          25,
          26,
          27,
          28,
          29,
          30,
          31,
          32,
          33,
          34,
          35,
          36,
          37,
          38,
          39,
          40,
          41,
          42,
          43,
          44,
          45,
          46,
          47,
          48,
          49,
          50,
          51,
          52,
          53,
          54,
          55,
          56,
          57,
          58,
          59,
          60,
          61,
          62,
          63,
          64,
          65,
          66,
          67,
          68,
          69,
          70,
          71,
          72,
          73,
          74,
          75,
          76,
          77,
          78,
          79,
          80,
          81,
          82,
          83,
          84,
          85,
          86,
          87,
          88,
          89,
          90,
          91,
          92,
          93,
          94,
          95,
          96,
          97,
          98,
          99,
          100,
          101,
          102,
          103,
          104,
          105,
          106,
          107,
          108,
          109,
          110,
          111,
          112,
          113,
          114,
          115,
          116,
          117,
          118,
          119,
          120,
          121,
          122,
          123,
          124,
          125,
          126,
          127,
          128,
          129,
          130,
          131,
          132,
          133,
          134,
          135,
          136,
          137,
          138,
          139,
          140,
          141,
          142,
          143,
          144,
          145,
          146,
          147,
          148,
          149,
          150,
          151,
          152,
          153,
          154,
          155,
          156,
          157,
          158,
          159,
          160,
          161,
          162,
          163,
          164
        ],
        "AcquisitionTime": [
          "185500.212500",
          "185504.227500",
          "185506.237500",
          "185508.245000",
          "185510.252500",
          "185512.260000",
          "185514.267500",
          "185516.277500",
          "185518.285000",
          "185520.292500",
          "185522.300000",
          "185524.307500",
          "185526.317500",
          "185528.325000",
          "185530.332500",
          "185532.340000",
          "185534.350000",
          "185536.357500",
          "185538.365000",
          "185540.372500",
          "185542.380000",
          "185544.390000",
          "185546.397500",
          "185548.405000",
          "185550.412500",
          "185552.420000",
          "185554.430000",
          "185556.437500",
          "185558.445000",
          "185600.452500",
          "185602.462500",
          "185604.470000",
          "185606.477500",
          "185608.485000",
          "185610.492500",
          "185612.502500",
          "185614.510000",
          "185616.517500",
          "185618.525000",
          "185620.532500",
          "185622.542500",
          "185624.550000",
          "185626.557500",
          "185628.565000",
          "185630.572500",
          "185632.582500",
          "185634.590000",
          "185636.597500",
          "185638.605000",
          "185640.615000",
          "185642.622500",
          "185644.630000",
          "185646.637500",
          "185648.645000",
          "185650.655000",
          "185652.662500",
          "185654.670000",
          "185656.677500",
          "185658.685000",
          "185700.695000",
          "185702.702500",
          "185704.710000",
          "185706.717500",
          "185708.727500",
          "185710.735000",
          "185712.742500",
          "185714.750000",
          "185716.757500",
          "185718.767500",
          "185720.775000",
          "185722.782500",
          "185724.790000",
          "185726.797500",
          "185728.807500",
          "185730.815000",
          "185732.822500",
          "185734.830000",
          "185736.840000",
          "185738.847500",
          "185740.855000",
          "185742.862500",
          "185744.870000",
          "185746.880000",
          "185748.887500",
          "185750.895000",
          "185752.902500",
          "185754.910000",
          "185756.920000",
          "185758.927500",
          "185800.935000",
          "185802.942500",
          "185804.950000",
          "185806.960000",
          "185808.967500",
          "185810.975000",
          "185812.982500",
          "185814.992500",
          "185817.000000",
          "185819.007500",
          "185821.015000",
          "185823.022500",
          "185825.032500",
          "185827.040000",
          "185829.047500",
          "185831.055000",
          "185833.062500",
          "185835.072500",
          "185837.080000",
          "185839.087500",
          "185841.095000",
          "185843.105000",
          "185845.112500",
          "185847.120000",
          "185849.127500",
          "185851.135000",
          "185853.145000",
          "185855.152500",
          "185857.160000",
          "185859.167500",
          "185901.175000",
          "185903.185000",
          "185905.192500",
          "185907.200000",
          "185909.207500",
          "185911.217500",
          "185913.225000",
          "185915.232500",
          "185917.240000",
          "185919.247500",
          "185921.257500",
          "185923.265000",
          "185925.272500",
          "185927.280000",
          "185929.287500",
          "185931.297500",
          "185933.305000",
          "185935.312500",
          "185937.320000",
          "185939.330000",
          "185941.337500",
          "185943.345000",
          "185945.352500",
          "185947.360000",
          "185949.370000",
          "185951.377500",
          "185953.385000",
          "185955.392500",
          "185957.400000",
          "185959.410000",
          "190001.417500",
          "190003.425000",
          "190005.432500",
          "190007.440000",
          "190009.450000",
          "190011.457500",
          "190013.465000",
          "190015.472500",
          "190017.482500",
          "190019.490000",
          "190021.497500",
          "190023.505000",
          "190025.512500",
          "190027.522500",
          "190029.530000"
        ],
        "ContentTime": [
          "185548.406000",
          "185548.406000",
          "185548.421000",
          "185548.421000",
          "185548.421000",
          "185548.421000",
          "185548.421000",
          "185548.421000",
          "185548.421000",
          "185548.437000",
          "185548.437000",
          "185548.437000",
          "185548.437000",
          "185548.437000",
          "185548.437000",
          "185548.437000",
          "185548.453000",
          "185548.453000",
          "185548.453000",
          "185548.453000",
          "185548.453000",
          "185548.468000",
          "185548.468000",
          "185628.390000",
          "185628.390000",
          "185628.390000",
          "185628.390000",
          "185628.406000",
          "185628.406000",
          "185628.406000",
          "185628.406000",
          "185628.406000",
          "185628.406000",
          "185628.406000",
          "185628.421000",
          "185628.421000",
          "185628.421000",
          "185628.421000",
          "185628.421000",
          "185628.437000",
          "185628.437000",
          "185628.437000",
          "185628.437000",
          "185708.390000",
          "185708.390000",
          "185708.390000",
          "185708.390000",
          "185708.406000",
          "185708.406000",
          "185708.406000",
          "185708.406000",
          "185708.421000",
          "185708.421000",
          "185708.421000",
          "185708.421000",
          "185708.421000",
          "185708.437000",
          "185708.437000",
          "185708.437000",
          "185708.437000",
          "185708.437000",
          "185708.437000",
          "185708.453000",
          "185748.390000",
          "185748.390000",
          "185748.390000",
          "185748.390000",
          "185748.406000",
          "185748.406000",
          "185748.406000",
          "185748.406000",
          "185748.421000",
          "185748.421000",
          "185748.421000",
          "185748.421000",
          "185748.421000",
          "185748.421000",
          "185748.421000",
          "185748.437000",
          "185748.437000",
          "185748.437000",
          "185748.437000",
          "185748.437000",
          "185828.390000",
          "185828.390000",
          "185828.390000",
          "185828.390000",
          "185828.406000",
          "185828.406000",
          "185828.406000",
          "185828.406000",
          "185828.406000",
          "185828.421000",
          "185828.421000",
          "185828.421000",
          "185828.421000",
          "185828.421000",
          "185828.437000",
          "185828.437000",
          "185828.437000",
          "185828.437000",
          "185828.437000",
          "185828.437000",
          "185908.390000",
          "185908.390000",
          "185908.390000",
          "185908.390000",
          "185908.406000",
          "185908.406000",
          "185908.406000",
          "185908.406000",
          "185908.406000",
          "185908.406000",
          "185908.406000",
          "185908.421000",
          "185908.421000",
          "185908.421000",
          "185908.421000",
          "185908.421000",
          "185908.437000",
          "185908.437000",
          "185908.437000",
          "185908.437000",
          "185948.390000",
          "185948.390000",
          "185948.390000",
          "185948.390000",
          "185948.406000",
          "185948.406000",
          "185948.406000",
          "185948.406000",
          "185948.406000",
          "185948.406000",
          "185948.421000",
          "185948.421000",
          "185948.421000",
          "185948.421000",
          "185948.421000",
          "185948.421000",
          "185948.421000",
          "185948.437000",
          "185948.437000",
          "185948.437000",
          "190028.390000",
          "190028.406000",
          "190028.406000",
          "190028.406000",
          "190028.406000",
          "190028.406000",
          "190028.421000",
          "190028.421000",
          "190028.421000",
          "190028.421000",
          "190028.421000",
          "190028.421000",
          "190028.437000",
          "190028.437000",
          "190028.437000",
          "190028.437000",
          "190028.437000",
          "190028.437000",
          "190028.437000",
          "190028.453000",
          "190030.171000"
        ],
        "InstanceCreationTime": [
          "185548.406000",
          "185548.406000",
          "185548.421000",
          "185548.421000",
          "185548.421000",
          "185548.421000",
          "185548.421000",
          "185548.421000",
          "185548.421000",
          "185548.437000",
          "185548.437000",
          "185548.437000",
          "185548.437000",
          "185548.437000",
          "185548.437000",
          "185548.437000",
          "185548.453000",
          "185548.453000",
          "185548.453000",
          "185548.453000",
          "185548.453000",
          "185548.468000",
          "185548.468000",
          "185628.390000",
          "185628.390000",
          "185628.390000",
          "185628.390000",
          "185628.406000",
          "185628.406000",
          "185628.406000",
          "185628.406000",
          "185628.406000",
          "185628.406000",
          "185628.406000",
          "185628.421000",
          "185628.421000",
          "185628.421000",
          "185628.421000",
          "185628.421000",
          "185628.437000",
          "185628.437000",
          "185628.437000",
          "185628.437000",
          "185708.390000",
          "185708.390000",
          "185708.390000",
          "185708.390000",
          "185708.406000",
          "185708.406000",
          "185708.406000",
          "185708.406000",
          "185708.421000",
          "185708.421000",
          "185708.421000",
          "185708.421000",
          "185708.421000",
          "185708.437000",
          "185708.437000",
          "185708.437000",
          "185708.437000",
          "185708.437000",
          "185708.437000",
          "185708.453000",
          "185748.390000",
          "185748.390000",
          "185748.390000",
          "185748.390000",
          "185748.406000",
          "185748.406000",
          "185748.406000",
          "185748.406000",
          "185748.421000",
          "185748.421000",
          "185748.421000",
          "185748.421000",
          "185748.421000",
          "185748.421000",
          "185748.421000",
          "185748.437000",
          "185748.437000",
          "185748.437000",
          "185748.437000",
          "185748.437000",
          "185828.390000",
          "185828.390000",
          "185828.390000",
          "185828.390000",
          "185828.406000",
          "185828.406000",
          "185828.406000",
          "185828.406000",
          "185828.406000",
          "185828.421000",
          "185828.421000",
          "185828.421000",
          "185828.421000",
          "185828.421000",
          "185828.437000",
          "185828.437000",
          "185828.437000",
          "185828.437000",
          "185828.437000",
          "185828.437000",
          "185908.390000",
          "185908.390000",
          "185908.390000",
          "185908.390000",
          "185908.406000",
          "185908.406000",
          "185908.406000",
          "185908.406000",
          "185908.406000",
          "185908.406000",
          "185908.406000",
          "185908.421000",
          "185908.421000",
          "185908.421000",
          "185908.421000",
          "185908.421000",
          "185908.437000",
          "185908.437000",
          "185908.437000",
          "185908.437000",
          "185948.390000",
          "185948.390000",
          "185948.390000",
          "185948.390000",
          "185948.406000",
          "185948.406000",
          "185948.406000",
          "185948.406000",
          "185948.406000",
          "185948.406000",
          "185948.421000",
          "185948.421000",
          "185948.421000",
          "185948.421000",
          "185948.421000",
          "185948.421000",
          "185948.421000",
          "185948.437000",
          "185948.437000",
          "185948.437000",
          "190028.390000",
          "190028.406000",
          "190028.406000",
          "190028.406000",
          "190028.406000",
          "190028.406000",
          "190028.421000",
          "190028.421000",
          "190028.421000",
          "190028.421000",
          "190028.421000",
          "190028.421000",
          "190028.437000",
          "190028.437000",
          "190028.437000",
          "190028.437000",
          "190028.437000",
          "190028.437000",
          "190028.437000",
          "190028.453000",
          "190030.171000"
        ],
        "InstanceNumber": [
          1,
          2,
          3,
          4,
          5,
          6,
          7,
          8,
          9,
          10,
          11,
          12,
          13,
          14,
          15,
          16,
          17,
          18,
          19,
          20,
          21,
          22,
          23,
          24,
          25,
          26,
          27,
          28,
          29,
          30,
          31,
          32,
          33,
          34,
          35,
          36,
          37,
          38,
          39,
          40,
          41,
          42,
          43,
          44,
          45,
          46,
          47,
          48,
          49,
          50,
          51,
          52,
          53,
          54,
          55,
          56,
          57,
          58,
          59,
          60,
          61,
          62,
          63,
          64,
          65,
          66,
          67,
          68,
          69,
          70,
          71,
          72,
          73,
          74,
          75,
          76,
          77,
          78,
          79,
          80,
          81,
          82,
          83,
          84,
          85,
          86,
          87,
          88,
          89,
          90,
          91,
          92,
          93,
          94,
          95,
          96,
          97,
          98,
          99,
          100,
          101,
          102,
          103,
          104,
          105,
          106,
          107,
          108,
          109,
          110,
          111,
          112,
          113,
          114,
          115,
          116,
          117,
          118,
          119,
          120,
          121,
          122,
          123,
          124,
          125,
          126,
          127,
          128,
          129,
          130,
          131,
          132,
          133,
          134,
          135,
          136,
          137,
          138,
          139,
          140,
          141,
          142,
          143,
          144,
          145,
          146,
          147,
          148,
          149,
          150,
          151,
          152,
          153,
          154,
          155,
          156,
          157,
          158,
          159,
          160,
          161,
          162,
          163,
          164
        ],
        "WindowCenter": [
          1213.0,
          1211.0,
          1213.0,
          1215.0,
          1215.0,
          1215.0,
          1214.0,
          1215.0,
          1215.0,
          1215.0,
          1212.0,
          1212.0,
          1216.0,
          1218.0,
          1215.0,
          1215.0,
          1216.0,
          1218.0,
          1218.0,
          1216.0,
          1214.0,
          1216.0,
          1216.0,
          1214.0,
          1213.0,
          1213.0,
          1214.0,
          1214.0,
          1215.0,
          1214.0,
          1214.0,
          1215.0,
          1218.0,
          1216.0,
          1216.0,
          1214.0,
          1216.0,
          1218.0,
          1217.0,
          1215.0,
          1214.0,
          1212.0,
          1212.0,
          1213.0,
          1214.0,
          1215.0,
          1217.0,
          1217.0,
          1218.0,
          1218.0,
          1217.0,
          1218.0,
          1217.0,
          1217.0,
          1216.0,
          1213.0,
          1212.0,
          1212.0,
          1213.0,
          1213.0,
          1215.0,
          1215.0,
          1213.0,
          1213.0,
          1214.0,
          1213.0,
          1212.0,
          1213.0,
          1214.0,
          1215.0,
          1216.0,
          1214.0,
          1214.0,
          1214.0,
          1213.0,
          1212.0,
          1212.0,
          1213.0,
          1213.0,
          1215.0,
          1214.0,
          1214.0,
          1217.0,
          1218.0,
          1215.0,
          1213.0,
          1214.0,
          1214.0,
          1216.0,
          1216.0,
          1213.0,
          1214.0,
          1214.0,
          1213.0,
          1213.0,
          1212.0,
          1213.0,
          1214.0,
          1215.0,
          1217.0,
          1216.0,
          1216.0,
          1217.0,
          1216.0,
          1215.0,
          1216.0,
          1216.0,
          1215.0,
          1215.0,
          1212.0,
          1213.0,
          1212.0,
          1214.0,
          1216.0,
          1216.0,
          1213.0,
          1213.0,
          1211.0,
          1212.0,
          1210.0,
          1211.0,
          1213.0,
          1215.0,
          1215.0,
          1215.0,
          1214.0,
          1215.0,
          1217.0,
          1217.0,
          1217.0,
          1215.0,
          1214.0,
          1216.0,
          1216.0,
          1215.0,
          1214.0,
          1212.0,
          1215.0,
          1213.0,
          1214.0,
          1215.0,
          1213.0,
          1213.0,
          1213.0,
          1212.0,
          1212.0,
          1214.0,
          1214.0,
          1215.0,
          1216.0,
          1216.0,
          1218.0,
          1216.0,
          1216.0,
          1216.0,
          1215.0,
          1213.0,
          1214.0,
          1214.0,
          1214.0,
          1215.0,
          1215.0,
          1216.0,
          1216.0
        ],
        "WindowWidth": [
          2911.0,
          2912.0,
          2915.0,
          2915.0,
          2916.0,
          2914.0,
          2916.0,
          2921.0,
          2921.0,
          2916.0,
          2910.0,
          2913.0,
          2925.0,
          2924.0,
          2916.0,
          2916.0,
          2925.0,
          2929.0,
          2924.0,
          2919.0,
          2917.0,
          2918.0,
          2918.0,
          2915.0,
          2912.0,
          2913.0,
          2916.0,
          2915.0,
          2913.0,
          2916.0,
          2917.0,
          2922.0,
          2923.0,
          2920.0,
          2918.0,
          2919.0,
          2921.0,
          2925.0,
          2925.0,
          2919.0,
          2913.0,
          2910.0,
          2909.0,
          2911.0,
          2914.0,
          2919.0,
          2922.0,
          2925.0,
          2925.0,
          2923.0,
          2922.0,
          2925.0,
          2922.0,
          2923.0,
          2918.0,
          2911.0,
          2910.0,
          2911.0,
          2914.0,
          2915.0,
          2914.0,
          2913.0,
          2909.0,
          2910.0,
          2912.0,
          2909.0,
          2907.0,
          2910.0,
          2911.0,
          2916.0,
          2917.0,
          2915.0,
          2912.0,
          2910.0,
          2910.0,
          2910.0,
          2908.0,
          2909.0,
          2912.0,
          2914.0,
          2912.0,
          2915.0,
          2922.0,
          2922.0,
