{
  "aor": 0.002694268292682927,
  "aqi": 0.010925951646341464,
  "bids_meta": {
    "AcquisitionMatrixPE": 96,
    "AcquisitionNumber": 1,
    "AcquisitionTime": "07:25:48.077500",
    "BandwidthPerPixelPhaseEncode": 52.083,
    "BaseResolution": 96,
    "ConversionSoftware": "dcm2niix",
    "ConversionSoftwareVersion": "v1.0.20180622 GCC6.3.0",
    "DerivedVendorReportedEchoSpacing": 0.000600004,
    "DeviceSerialNumber": "18926",
    "DwellTime": 2.6e-06,
    "EchoTime": 0.025,
    "EffectiveEchoSpacing": 0.000200001,
    "FlipAngle": 50,
    "ImageOrientationPatientDICOM": [
      0.999992,
      0.00067012,
      0.00404905,
      2.11009e-10,
      0.98658,
      -0.16328
    ],
    "ImageType": [
      "ORIGINAL",
      "PRIMARY",
      "M",
      "ND",
      "ECHO",
      "00",
      "MOSAIC"
    ],
    "InPlanePhaseEncodingDirectionDICOM": "ROW",
    "InstitutionName": "NIMH",
    "InstitutionalDepartmentName": "Department",
    "MRAcquisitionType": "2D",
    "MagneticFieldStrength": 6.98,
    "Manufacturer": "Siemens",
    "ManufacturersModelName": "Investigational_Device_7T",
    "Modality": "MR",
    "ParallelReductionFactorInPlane": 3,
    "PartialFourier": 1,
    "PatientPosition": "HFS",
    "PercentPhaseFOV": 100,
    "PhaseEncodingDirection": "i",
    "PhaseEncodingSteps": 94,
    "PhaseResolution": 1,
    "PixelBandwidth": 2003,
    "ProcedureStepDescription": "MRI_Procedure_Limited",
    "ProtocolName": "NIH_EPI_2.0iso_TR2_Run01",
    "PulseSequenceDetails": "%CustomerSeq%_inati_nih_epi",
    "ReceiveCoilName": "32Ch_Head_7T",
    "ReconMatrixPE": 96,
    "RepetitionTime": 2,
    "SAR": 0.0759875,
    "ScanningSequence": "EP",
    "SequenceName": "epfid2d1_96",
    "SequenceVariant": "SK",
    "SeriesDescription": "NIH_EPI_2.0iso_TR2_Run01",
    "SeriesNumber": 5,
    "ShimSetting": [
      -131,
      290,
      1181,
      1697,
      -139,
      732,
      180,
      -249
    ],
    "SliceThickness": 2,
    "SliceTiming": [
      1.0025,
      0,
      1.04,
      0.0375,
      1.0775,
      0.0725,
      1.115,
      0.11,
      1.1525,
      0.1475,
      1.19,
      0.185,
      1.225,
      0.2225,
      1.2625,
      0.26,
      1.3,
      0.2975,
      1.3375,
      0.335,
      1.375,
      0.37,
      1.4125,
      0.4075,
      1.45,
      0.445,
      1.4875,
      0.4825,
      1.5225,
      0.52,
      1.56,
      0.5575,
      1.5975,
      0.595,
      1.635,
      0.6325,
      1.6725,
      0.6675,
      1.71,
      0.705,
      1.7475,
      0.7425,
      1.785,
      0.78,
      1.82,
      0.8175,
      1.8575,
      0.855,
      1.895,
      0.8925,
      1.9325,
      0.93,
      1.97,
      0.965
    ],
    "SoftwareVersions": "syngo_MR_B17",
    "SpacingBetweenSlices": 2,
    "StationName": "FMRIFD7T",
    "TaskName": "FullFovNoAttentionTask",
    "TotalReadoutTime": 0.0190001,
    "TxRefAmp": 275,
    "dataset": "ds001555",
    "dcmmeta_affine": [
      [
        -1.9999831914901733,
        4.2201880878778297e-10,
        0.008208253420889378,
        95.76705169677734
      ],
      [
        -0.0013402394251897931,
        1.973159670829773,
        -0.32655632495880127,
        -61.09407043457031
      ],
      [
        0.008098097518086433,
        0.32655906677246094,
        1.9731431007385254,
        -51.69081115722656
      ],
      [
        0.0,
        0.0,
        0.0,
        1.0
      ]
    ],
    "dcmmeta_reorient_transform": [
      [
        0.0,
        -1.0,
        0.0,
        95.0
      ],
      [
        1.0,
        0.0,
        0.0,
        0.0
      ],
      [
        0.0,
        0.0,
        1.0,
        0.0
      ],
      [
        0.0,
        0.0,
        0.0,
        1.0
      ]
    ],
    "dcmmeta_shape": [
      96,
      96,
      54,
      164
    ],
    "dcmmeta_slice_dim": 2,
    "dcmmeta_version": 0.6,
    "global": {
      "const": {
        "AcquisitionMatrix": [
          0,
          96,
          96,
          0
        ],
        "Allergies": "No Known Allergies",
        "AngioFlag": "N",
        "BitsAllocated": 16,
        "BitsStored": 12,
        "Columns": 768,
        "EchoNumbers": 1,
        "EchoTime": 25.0,
        "EchoTrainLength": 1,
        "FlipAngle": 50.0,
        "HighBit": 11,
        "ImageOrientationPatient": [
          0.99999157803662,
          0.00067011969073,
          0.00404904870684,
          2.110094e-10,
          0.98657984636313,
          -0.1632795356133
        ],
        "ImagePositionPatient": [
          -767.761392775,
          -789.78807875724,
          86.335187039869
        ],
        "ImageType": [
          "ORIGINAL",
          "PRIMARY",
          "M",
          "ND",
          "ECHO_00",
          "MOSAIC"
        ],
        "ImagedNucleus": "1H",
        "ImagingFrequency": 297.204952,
        "InPlanePhaseEncodingDirection": "ROW",
        "LargestImagePixelValue": 4095,
        "MRAcquisitionType": "2D",
        "MagneticFieldStrength": 6.98,
        "Manufacturer": "SIEMENS",
        "ManufacturerModelName": "Investigational_Device_7T",
        "Modality": "MR",
        "NumberOfAverages": 1.0,
        "NumberOfPhaseEncodingSteps": 94,
        "PercentPhaseFieldOfView": 100.0,
        "PercentSampling": 100.0,
        "PerformedProcedureStepStartTime": "071100.015000",
        "PhotometricInterpretation": "MONOCHROME2",
        "PixelBandwidth": 2003.0,
        "PixelRepresentation": 0,
        "PixelSpacing": [
          2.0,
          2.0
        ],
        "PositionReferenceIndicator": "",
        "ProcedureCodeSequence": [
          {
            "CodeMeaning": "MRI Procedure Limited",
            "CodeValue": "MI01491",
            "CodingSchemeDesignator": "USA Standard",
            "ContextIdentifier": "4000112205"
          }
        ],
        "ProtocolName": "NIH_EPI_2.0iso_TR2_Run01",
        "ReferencedStudySequence": [
          {
            "ReferencedSOPClassUID": "1.2.840.10008.3.1.2.3.1",
            "ReferencedSOPInstanceUID": "1.2.840.113564.9.1.2723958737.61.2.5000078012"
          }
        ],
        "RepetitionTime": 2000.0,
        "RequestedProcedureCodeSequence": [
          {
            "CodeMeaning": "MRI Procedure Limited",
            "CodeValue": "MI01491",
            "CodingSchemeDesignator": "USA Standard",
            "ContextIdentifier": "4000112205"
          }
        ],
        "RequestingService": "MHED",
        "Rows": 768,
        "SAR": 0.07598745730917,
        "SamplesPerPixel": 1,
        "ScanningSequence": "EP",
        "SequenceName": "epfid2d1_96",
        "SequenceVariant": "SK",
        "SeriesDescription": "NIH_EPI_2.0iso_TR2_Run01",
        "SeriesNumber": 5,
        "SliceLocation": -40.628316438469,
        "SliceThickness": 2.0,
        "SmallestImagePixelValue": 0,
        "SoftwareVersions": "syngo MR B17",
        "SpacingBetweenSlices": 2.0000000184226,
        "TransmitCoilName": "32Ch_Head_7T",
        "VariableFlipAngleFlag": "N",
        "WindowCenterWidthExplanation": "Algo1",
        "dBdt": 0.0
      },
      "slices": {}
    },
    "modality": "bold",
    "run_id": 2,
    "session_id": "08",
    "subject_id": "002",
    "task_id": "FullFovNoAttentionTask",
    "time": {
      "samples": {
        "AcquisitionNumber": [
          1,
          2,
          3,
          4,
          5,
          6,
          7,
          8,
          9,
          10,
          11,
          12,
          13,
          14,
          15,
          16,
          17,
          18,
          19,
          20,
          21,
          22,
          23,
          24,
          25,
          26,
          27,
          28,
          29,
          30,
          31,
          32,
          33,
          34,
          35,
          36,
          37,
          38,
          39,
          40,
          41,
          42,
          43,
          44,
          45,
          46,
          47,
          48,
          49,
          50,
          51,
          52,
          53,
          54,
          55,
          56,
          57,
          58,
          59,
          60,
          61,
          62,
          63,
          64,
          65,
          66,
          67,
          68,
          69,
          70,
          71,
          72,
          73,
          74,
          75,
          76,
          77,
          78,
          79,
          80,
          81,
          82,
          83,
          84,
          85,
          86,
          87,
          88,
          89,
          90,
          91,
          92,
          93,
          94,
          95,
          96,
          97,
          98,
          99,
          100,
          101,
          102,
          103,
          104,
          105,
          106,
          107,
          108,
          109,
          110,
          111,
          112,
          113,
          114,
          115,
          116,
          117,
          118,
          119,
          120,
          121,
          122,
          123,
          124,
          125,
          126,
          127,
          128,
          129,
          130,
          131,
          132,
          133,
          134,
          135,
          136,
          137,
          138,
          139,
          140,
          141,
          142,
          143,
          144,
          145,
          146,
          147,
          148,
          149,
          150,
          151,
          152,
          153,
          154,
          155,
          156,
          157,
          158,
          159,
          160,
          161,
          162,
          163,
          164
        ],
        "AcquisitionTime": [
          "072548.077500",
          "072552.095000",
          "072554.102500",
          "072556.110000",
          "072558.117500",
          "072600.127500",
          "072602.135000",
          "072604.142500",
          "072606.150000",
          "072608.157500",
          "072610.167500",
          "072612.175000",
          "072614.182500",
          "072616.190000",
          "072618.197500",
          "072620.207500",
          "072622.215000",
          "072624.222500",
          "072626.230000",
          "072628.240000",
          "072630.247500",
          "072632.255000",
          "072634.262500",
          "072636.270000",
          "072638.280000",
          "072640.287500",
          "072642.295000",
          "072644.302500",
          "072646.310000",
          "072648.320000",
          "072650.327500",
          "072652.335000",
          "072654.342500",
          "072656.350000",
          "072658.360000",
          "072700.367500",
          "072702.375000",
          "072704.382500",
          "072706.392500",
          "072708.400000",
          "072710.407500",
          "072712.415000",
          "072714.422500",
          "072716.432500",
          "072718.440000",
          "072720.447500",
          "072722.455000",
          "072724.462500",
          "072726.472500",
          "072728.480000",
          "072730.487500",
          "072732.495000",
          "072734.505000",
          "072736.512500",
          "072738.520000",
          "072740.527500",
          "072742.535000",
          "072744.545000",
          "072746.552500",
          "072748.560000",
          "072750.567500",
          "072752.575000",
          "072754.585000",
          "072756.592500",
          "072758.600000",
          "072800.607500",
          "072802.617500",
          "072804.625000",
          "072806.632500",
          "072808.640000",
          "072810.647500",
          "072812.657500",
          "072814.665000",
          "072816.672500",
          "072818.680000",
          "072820.687500",
          "072822.697500",
          "072824.705000",
          "072826.712500",
          "072828.720000",
          "072830.727500",
          "072832.737500",
          "072834.745000",
          "072836.752500",
          "072838.760000",
          "072840.770000",
          "072842.777500",
          "072844.785000",
          "072846.792500",
          "072848.800000",
          "072850.810000",
          "072852.817500",
          "072854.825000",
          "072856.832500",
          "072858.840000",
          "072900.850000",
          "072902.857500",
          "072904.865000",
          "072906.872500",
          "072908.882500",
          "072910.890000",
          "072912.897500",
          "072914.905000",
          "072916.912500",
          "072918.922500",
          "072920.930000",
          "072922.937500",
          "072924.945000",
          "072926.952500",
          "072928.962500",
          "072930.970000",
          "072932.977500",
          "072934.985000",
          "072936.995000",
          "072939.002500",
          "072941.010000",
          "072943.017500",
          "072945.025000",
          "072947.035000",
          "072949.042500",
          "072951.050000",
          "072953.057500",
          "072955.065000",
          "072957.075000",
          "072959.082500",
          "073001.090000",
          "073003.097500",
          "073005.105000",
          "073007.115000",
          "073009.122500",
          "073011.130000",
          "073013.137500",
          "073015.147500",
          "073017.155000",
          "073019.162500",
          "073021.170000",
          "073023.177500",
          "073025.187500",
          "073027.195000",
          "073029.202500",
          "073031.210000",
          "073033.217500",
          "073035.227500",
          "073037.235000",
          "073039.242500",
          "073041.250000",
          "073043.260000",
          "073045.267500",
          "073047.275000",
          "073049.282500",
          "073051.290000",
          "073053.300000",
          "073055.307500",
          "073057.315000",
          "073059.322500",
          "073101.330000",
          "073103.340000",
          "073105.347500",
          "073107.355000",
          "073109.362500",
          "073111.372500",
          "073113.380000",
          "073115.387500",
          "073117.395000"
        ],
        "ContentTime": [
          "072647.078000",
          "072647.093000",
          "072647.093000",
          "072647.093000",
          "072647.093000",
          "072647.093000",
          "072647.093000",
          "072647.093000",
          "072647.109000",
          "072647.109000",
          "072647.109000",
          "072647.109000",
          "072647.109000",
          "072647.109000",
          "072647.125000",
          "072647.125000",
          "072647.125000",
          "072647.140000",
          "072647.140000",
          "072647.140000",
          "072647.140000",
          "072647.140000",
          "072647.140000",
          "072647.140000",
          "072647.156000",
          "072647.156000",
          "072647.156000",
          "072647.156000",
          "072727.078000",
          "072727.078000",
          "072727.078000",
          "072727.078000",
          "072727.093000",
          "072727.093000",
          "072727.093000",
          "072727.093000",
          "072727.093000",
          "072727.093000",
          "072727.093000",
          "072727.109000",
          "072727.109000",
          "072727.109000",
          "072727.109000",
          "072727.109000",
          "072727.109000",
          "072727.125000",
          "072727.125000",
          "072727.125000",
          "072807.078000",
          "072807.078000",
          "072807.078000",
          "072807.078000",
          "072807.078000",
          "072807.093000",
          "072807.093000",
          "072807.093000",
          "072807.109000",
          "072807.109000",
          "072807.109000",
          "072807.125000",
          "072807.125000",
          "072807.125000",
          "072807.125000",
          "072807.125000",
          "072807.125000",
          "072807.125000",
          "072807.140000",
          "072807.140000",
          "072847.078000",
          "072847.078000",
          "072847.078000",
          "072847.078000",
          "072847.078000",
          "072847.078000",
          "072847.093000",
          "072847.093000",
          "072847.093000",
          "072847.093000",
          "072847.093000",
          "072847.093000",
          "072847.109000",
          "072847.109000",
          "072847.109000",
          "072847.109000",
          "072847.109000",
          "072847.109000",
          "072847.125000",
          "072847.125000",
          "072927.078000",
          "072927.078000",
          "072927.078000",
          "072927.078000",
          "072927.093000",
          "072927.093000",
          "072927.093000",
          "072927.093000",
          "072927.093000",
          "072927.093000",
          "072927.109000",
          "072927.109000",
          "072927.109000",
          "072927.109000",
          "072927.109000",
          "072927.109000",
          "072927.125000",
          "072927.125000",
          "072927.125000",
          "072927.125000",
          "073007.078000",
          "073007.078000",
          "073007.078000",
          "073007.078000",
          "073007.078000",
          "073007.078000",
          "073007.093000",
          "073007.093000",
          "073007.093000",
          "073007.093000",
          "073007.109000",
          "073007.109000",
          "073007.109000",
          "073007.109000",
          "073007.109000",
          "073007.109000",
          "073007.125000",
          "073007.125000",
          "073007.125000",
          "073007.125000",
          "073047.078000",
          "073047.078000",
          "073047.078000",
          "073047.093000",
          "073047.093000",
          "073047.093000",
          "073047.093000",
          "073047.093000",
          "073047.093000",
          "073047.093000",
          "073047.109000",
          "073047.109000",
          "073047.109000",
          "073047.109000",
          "073047.109000",
          "073047.109000",
          "073047.109000",
          "073047.125000",
          "073047.125000",
          "073047.125000",
          "073118.031000",
          "073118.031000",
          "073118.046000",
          "073118.062000",
          "073118.062000",
          "073118.062000",
          "073118.062000",
          "073118.062000",
          "073118.062000",
          "073118.062000",
          "073118.078000",
          "073118.078000",
          "073118.078000",
          "073118.078000",
          "073118.078000",
          "073118.078000"
        ],
        "InstanceCreationTime": [
          "072647.078000",
          "072647.093000",
          "072647.093000",
          "072647.093000",
          "072647.093000",
          "072647.093000",
          "072647.093000",
          "072647.093000",
          "072647.109000",
          "072647.109000",
          "072647.109000",
          "072647.109000",
          "072647.109000",
          "072647.109000",
          "072647.125000",
          "072647.125000",
          "072647.125000",
          "072647.140000",
          "072647.140000",
          "072647.140000",
          "072647.140000",
          "072647.140000",
          "072647.140000",
          "072647.140000",
          "072647.156000",
          "072647.156000",
          "072647.156000",
          "072647.156000",
          "072727.078000",
          "072727.078000",
          "072727.078000",
          "072727.078000",
          "072727.093000",
          "072727.093000",
          "072727.093000",
          "072727.093000",
          "072727.093000",
          "072727.093000",
          "072727.093000",
          "072727.109000",
          "072727.109000",
          "072727.109000",
          "072727.109000",
          "072727.109000",
          "072727.109000",
          "072727.125000",
          "072727.125000",
          "072727.125000",
          "072807.078000",
          "072807.078000",
          "072807.078000",
          "072807.078000",
          "072807.078000",
          "072807.093000",
          "072807.093000",
          "072807.093000",
          "072807.109000",
          "072807.109000",
          "072807.109000",
          "072807.125000",
          "072807.125000",
          "072807.125000",
          "072807.125000",
          "072807.125000",
          "072807.125000",
          "072807.125000",
          "072807.140000",
          "072807.140000",
          "072847.078000",
          "072847.078000",
          "072847.078000",
          "072847.078000",
          "072847.078000",
          "072847.078000",
          "072847.093000",
          "072847.093000",
          "072847.093000",
          "072847.093000",
          "072847.093000",
          "072847.093000",
          "072847.109000",
          "072847.109000",
          "072847.109000",
          "072847.109000",
          "072847.109000",
          "072847.109000",
          "072847.125000",
          "072847.125000",
          "072927.078000",
          "072927.078000",
          "072927.078000",
          "072927.078000",
          "072927.093000",
          "072927.093000",
          "072927.093000",
          "072927.093000",
          "072927.093000",
          "072927.093000",
          "072927.109000",
          "072927.109000",
          "072927.109000",
          "072927.109000",
          "072927.109000",
          "072927.109000",
          "072927.125000",
          "072927.125000",
          "072927.125000",
          "072927.125000",
          "073007.078000",
          "073007.078000",
          "073007.078000",
          "073007.078000",
          "073007.078000",
          "073007.078000",
          "073007.093000",
          "073007.093000",
          "073007.093000",
          "073007.093000",
          "073007.109000",
          "073007.109000",
          "073007.109000",
          "073007.109000",
          "073007.109000",
          "073007.109000",
          "073007.125000",
          "073007.125000",
          "073007.125000",
          "073007.125000",
          "073047.078000",
          "073047.078000",
          "073047.078000",
          "073047.093000",
          "073047.093000",
          "073047.093000",
          "073047.093000",
          "073047.093000",
          "073047.093000",
          "073047.093000",
          "073047.109000",
          "073047.109000",
          "073047.109000",
          "073047.109000",
          "073047.109000",
          "073047.109000",
          "073047.109000",
          "073047.125000",
          "073047.125000",
          "073047.125000",
          "073118.031000",
          "073118.031000",
          "073118.046000",
          "073118.062000",
          "073118.062000",
          "073118.062000",
          "073118.062000",
          "073118.062000",
          "073118.062000",
          "073118.062000",
          "073118.078000",
          "073118.078000",
          "073118.078000",
          "073118.078000",
          "073118.078000",
          "073118.078000"
        ],
        "InstanceNumber": [
          1,
          2,
          3,
          4,
          5,
          6,
          7,
          8,
          9,
          10,
          11,
          12,
          13,
          14,
          15,
          16,
          17,
          18,
          19,
          20,
          21,
          22,
          23,
          24,
          25,
          26,
          27,
          28,
          29,
          30,
          31,
          32,
          33,
          34,
          35,
          36,
          37,
          38,
          39,
          40,
          41,
          42,
          43,
          44,
          45,
          46,
          47,
          48,
          49,
          50,
          51,
          52,
          53,
          54,
          55,
          56,
          57,
          58,
          59,
          60,
          61,
          62,
          63,
          64,
          65,
          66,
          67,
          68,
          69,
          70,
          71,
          72,
          73,
          74,
          75,
          76,
          77,
          78,
          79,
          80,
          81,
          82,
          83,
          84,
          85,
          86,
          87,
          88,
          89,
          90,
          91,
          92,
          93,
          94,
          95,
          96,
          97,
          98,
          99,
          100,
          101,
          102,
          103,
          104,
          105,
          106,
          107,
          108,
          109,
          110,
          111,
          112,
          113,
          114,
          115,
          116,
          117,
          118,
          119,
          120,
          121,
          122,
          123,
          124,
          125,
          126,
          127,
          128,
          129,
          130,
          131,
          132,
          133,
          134,
          135,
          136,
          137,
          138,
          139,
          140,
          141,
          142,
          143,
          144,
          145,
          146,
          147,
          148,
          149,
          150,
          151,
          152,
          153,
          154,
          155,
          156,
          157,
          158,
          159,
          160,
          161,
          162,
          163,
          164
        ],
        "WindowCenter": [
          1035.0,
          1036.0,
          1039.0,
          1038.0,
          1038.0,
          1037.0,
          1037.0,
          1039.0,
          1038.0,
          1037.0,
          1037.0,
          1037.0,
          1038.0,
          1036.0,
          1036.0,
          1035.0,
          1038.0,
          1038.0,
          1037.0,
          1036.0,
          1035.0,
          1035.0,
          1036.0,
          1038.0,
          1041.0,
          1039.0,
          1037.0,
          1035.0,
          1034.0,
          1035.0,
          1036.0,
          1036.0,
          1039.0,
          1035.0,
          1035.0,
          1036.0,
          1037.0,
          1037.0,
          1040.0,
          1038.0,
          1037.0,
          1036.0,
          1037.0,
          1038.0,
          1038.0,
          1038.0,
          1038.0,
          1037.0,
          1037.0,
          1035.0,
          1036.0,
          1038.0,
          1039.0,
          1039.0,
          1036.0,
          1035.0,
          1035.0,
          1037.0,
          1041.0,
          1038.0,
          1036.0,
          1035.0,
          1035.0,
          1036.0,
          1036.0,
          1037.0,
          1037.0,
          1034.0,
          1036.0,
          1037.0,
          1036.0,
          1036.0,
          1037.0,
          1037.0,
          1039.0,
          1040.0,
          1040.0,
          1040.0,
          1041.0,
          1041.0,
          1041.0,
          1041.0,
          1043.0,
          1044.0,
          1040.0,
          1037.0,
          1035.0,
          1035.0,
          1036.0,
          1035.0,
          1036.0,
          1037.0,
          1037.0,
          1037.0,
          1038.0,
          1035.0,
          1034.0,
          1036.0,
          1035.0,
          1036.0,
          1036.0,
          1039.0,
          1043.0,
          1043.0,
          1040.0,
          1036.0,
          1034.0,
          1035.0,
          1038.0,
          1040.0,
          1038.0,
          1041.0,
          1041.0,
          1041.0,
          1042.0,
          1039.0,
          1040.0,
          1041.0,
          1043.0,
          1044.0,
          1041.0,
          1040.0,
          1037.0,
          1036.0,
          1036.0,
          1040.0,
          1038.0,
          1036.0,
          1038.0,
          1038.0,
          1038.0,
          1038.0,
          1038.0,
          1041.0,
          1043.0,
          1040.0,
          1039.0,
          1038.0,
          1038.0,
          1038.0,
          1037.0,
          1037.0,
          1040.0,
          1040.0,
          1041.0,
          1039.0,
          1040.0,
          1042.0,
          1042.0,
          1039.0,
          1036.0,
          1036.0,
          1037.0,
          1037.0,
          1035.0,
          1038.0,
          1036.0,
          1038.0,
          1044.0,
          1041.0,
          1037.0,
          1037.0,
          1037.0,
          1039.0
        ],
        "WindowWidth": [
          2741.0,
          2755.0,
          2759.0,
          2756.0,
          2753.0,
          2745.0,
          2747.0,
          2760.0,
          2751.0,
          2752.0,
          2752.0,
          2752.0,
          2757.0,
          2747.0,
          2746.0,
          2740.0,
          2757.0,
          2756.0,
          2746.0,
          2746.0,
          2742.0,
          2743.0,
          2746.0,
          2761.0,
          2766.0,
          2756.0,
          2744.0,
          2736.0,
          2734.0,
          2738.0,
          2745.0,
          2749.0,
          2755.0,
          2743.0,
          2741.0,
          2744.0,
          2749.0,
          2750.0,
          2763.0,
          2751.0,
          2738.0,
          2741.0,
          2743.0,
          2751.0,
          2753.0,
          2756.0,
          2746.0,
          2741.0,
          2738.0,
          2734.0,
          2740.0,
          2748.0,
          2758.0,
          2746.0,
          2736.0,
          2730.0,
          2734.0,
          2748.0,
          2762.0,
          2747.0,
          2735.0,
          2732.0,
          2737.0,
          2745.0,
          2749.0,
          2743.0,
          2744.0,
          2739.0,
          2742.0,
          2741.0,
          2732.0,
          2738.0,
          2743.0,
          2741.0,
          2750.0,
          2757.0,
          2753.0,
          2751.0,
          2755.0,
          2759.0,
          2760.0,
          2764.0,
          2777.0,
          2775.0,
          2755.0,
          2741.0,
