{
  "aor": 0.003766585365853659,
  "aqi": 0.009691326341463417,
  "bids_meta": {
    "AcquisitionMatrixPE": 96,
    "AcquisitionNumber": 1,
    "AcquisitionTime": "07:50:57.852500",
    "BandwidthPerPixelPhaseEncode": 52.083,
    "BaseResolution": 96,
    "ConversionSoftware": "dcm2niix",
    "ConversionSoftwareVersion": "v1.0.20180622 GCC6.3.0",
    "DerivedVendorReportedEchoSpacing": 0.000600004,
    "DeviceSerialNumber": "18926",
    "DwellTime": 2.6e-06,
    "EchoTime": 0.025,
    "EffectiveEchoSpacing": 0.000200001,
    "FlipAngle": 50,
    "ImageOrientationPatientDICOM": [
      0.999992,
      0.00067012,
      0.00404905,
      2.11009e-10,
      0.98658,
      -0.16328
    ],
    "ImageType": [
      "ORIGINAL",
      "PRIMARY",
      "M",
      "ND",
      "ECHO",
      "00",
      "MOSAIC"
    ],
    "InPlanePhaseEncodingDirectionDICOM": "ROW",
    "InstitutionName": "NIMH",
    "InstitutionalDepartmentName": "Department",
    "MRAcquisitionType": "2D",
    "MagneticFieldStrength": 6.98,
    "Manufacturer": "Siemens",
    "ManufacturersModelName": "Investigational_Device_7T",
    "Modality": "MR",
    "ParallelReductionFactorInPlane": 3,
    "PartialFourier": 1,
    "PatientPosition": "HFS",
    "PercentPhaseFOV": 100,
    "PhaseEncodingDirection": "i",
    "PhaseEncodingSteps": 94,
    "PhaseResolution": 1,
    "PixelBandwidth": 2003,
    "ProcedureStepDescription": "MRI_Procedure_Limited",
    "ProtocolName": "NIH_EPI_2.0iso_TR2_Run05",
    "PulseSequenceDetails": "%CustomerSeq%_inati_nih_epi",
    "ReceiveCoilName": "32Ch_Head_7T",
    "ReconMatrixPE": 96,
    "RepetitionTime": 2,
    "SAR": 0.0759875,
    "ScanningSequence": "EP",
    "SequenceName": "epfid2d1_96",
    "SequenceVariant": "SK",
    "SeriesDescription": "NIH_EPI_2.0iso_TR2_Run05",
    "SeriesNumber": 9,
    "ShimSetting": [
      -131,
      290,
      1181,
      1697,
      -139,
      732,
      180,
      -249
    ],
    "SliceThickness": 2,
    "SliceTiming": [
      1.0025,
      0,
      1.04,
      0.0375,
      1.0775,
      0.075,
      1.115,
      0.1125,
      1.1525,
      0.1475,
      1.19,
      0.185,
      1.2275,
      0.2225,
      1.265,
      0.26,
      1.3,
      0.2975,
      1.3375,
      0.335,
      1.375,
      0.3725,
      1.4125,
      0.41,
      1.45,
      0.445,
      1.4875,
      0.4825,
      1.525,
      0.52,
      1.5625,
      0.5575,
      1.5975,
      0.595,
      1.635,
      0.6325,
      1.6725,
      0.67,
      1.71,
      0.705,
      1.7475,
      0.7425,
      1.785,
      0.78,
      1.8225,
      0.8175,
      1.86,
      0.855,
      1.895,
      0.8925,
      1.9325,
      0.93,
      1.97,
      0.9675
    ],
    "SoftwareVersions": "syngo_MR_B17",
    "SpacingBetweenSlices": 2,
    "StationName": "FMRIFD7T",
    "TaskName": "FullFovNoAttentionTask",
    "TotalReadoutTime": 0.0190001,
    "TxRefAmp": 275,
    "dataset": "ds001555",
    "dcmmeta_affine": [
      [
        -1.9999831914901733,
        4.2201880878778297e-10,
        0.008208253420889378,
        95.76705169677734
      ],
      [
        -0.0013402394251897931,
        1.973159670829773,
        -0.32655632495880127,
        -61.09407043457031
      ],
      [
        0.008098097518086433,
        0.32655906677246094,
        1.9731431007385254,
        -51.69081115722656
      ],
      [
        0.0,
        0.0,
        0.0,
        1.0
      ]
    ],
    "dcmmeta_reorient_transform": [
      [
        0.0,
        -1.0,
        0.0,
        95.0
      ],
      [
        1.0,
        0.0,
        0.0,
        0.0
      ],
      [
        0.0,
        0.0,
        1.0,
        0.0
      ],
      [
        0.0,
        0.0,
        0.0,
        1.0
      ]
    ],
    "dcmmeta_shape": [
      96,
      96,
      54,
      164
    ],
    "dcmmeta_slice_dim": 2,
    "dcmmeta_version": 0.6,
    "global": {
      "const": {
        "AcquisitionMatrix": [
          0,
          96,
          96,
          0
        ],
        "Allergies": "No Known Allergies",
        "AngioFlag": "N",
        "BitsAllocated": 16,
        "BitsStored": 12,
        "Columns": 768,
        "EchoNumbers": 1,
        "EchoTime": 25.0,
        "EchoTrainLength": 1,
        "FlipAngle": 50.0,
        "HighBit": 11,
        "ImageOrientationPatient": [
          0.99999157803662,
          0.00067011969073,
          0.00404904870684,
          2.110094e-10,
          0.98657984636313,
          -0.1632795356133
        ],
        "ImagePositionPatient": [
          -767.761392775,
          -789.78807875724,
          86.335187039869
        ],
        "ImageType": [
          "ORIGINAL",
          "PRIMARY",
          "M",
          "ND",
          "ECHO_00",
          "MOSAIC"
        ],
        "ImagedNucleus": "1H",
        "ImagingFrequency": 297.205046,
        "InPlanePhaseEncodingDirection": "ROW",
        "LargestImagePixelValue": 4095,
        "MRAcquisitionType": "2D",
        "MagneticFieldStrength": 6.98,
        "Manufacturer": "SIEMENS",
        "ManufacturerModelName": "Investigational_Device_7T",
        "Modality": "MR",
        "NumberOfAverages": 1.0,
        "NumberOfPhaseEncodingSteps": 94,
        "PercentPhaseFieldOfView": 100.0,
        "PercentSampling": 100.0,
        "PerformedProcedureStepStartTime": "071100.015000",
        "PhotometricInterpretation": "MONOCHROME2",
        "PixelBandwidth": 2003.0,
        "PixelRepresentation": 0,
        "PixelSpacing": [
          2.0,
          2.0
        ],
        "PositionReferenceIndicator": "",
        "ProcedureCodeSequence": [
          {
            "CodeMeaning": "MRI Procedure Limited",
            "CodeValue": "MI01491",
            "CodingSchemeDesignator": "USA Standard",
            "ContextIdentifier": "4000112205"
          }
        ],
        "ProtocolName": "NIH_EPI_2.0iso_TR2_Run05",
        "ReferencedStudySequence": [
          {
            "ReferencedSOPClassUID": "1.2.840.10008.3.1.2.3.1",
            "ReferencedSOPInstanceUID": "1.2.840.113564.9.1.2723958737.61.2.5000078012"
          }
        ],
        "RepetitionTime": 2000.0,
        "RequestedProcedureCodeSequence": [
          {
            "CodeMeaning": "MRI Procedure Limited",
            "CodeValue": "MI01491",
            "CodingSchemeDesignator": "USA Standard",
            "ContextIdentifier": "4000112205"
          }
        ],
        "RequestingService": "MHED",
        "Rows": 768,
        "SAR": 0.07598745730917,
        "SamplesPerPixel": 1,
        "ScanningSequence": "EP",
        "SequenceName": "epfid2d1_96",
        "SequenceVariant": "SK",
        "SeriesDescription": "NIH_EPI_2.0iso_TR2_Run05",
        "SeriesNumber": 9,
        "SliceLocation": -40.628316438469,
        "SliceThickness": 2.0,
        "SmallestImagePixelValue": 0,
        "SoftwareVersions": "syngo MR B17",
        "SpacingBetweenSlices": 2.0000000184226,
        "TransmitCoilName": "32Ch_Head_7T",
        "VariableFlipAngleFlag": "N",
        "WindowCenterWidthExplanation": "Algo1",
        "dBdt": 0.0
      },
      "slices": {}
    },
    "modality": "bold",
    "run_id": 6,
    "session_id": "08",
    "subject_id": "002",
    "task_id": "FullFovNoAttentionTask",
    "time": {
      "samples": {
        "AcquisitionNumber": [
          1,
          2,
          3,
          4,
          5,
          6,
          7,
          8,
          9,
          10,
          11,
          12,
          13,
          14,
          15,
          16,
          17,
          18,
          19,
          20,
          21,
          22,
          23,
          24,
          25,
          26,
          27,
          28,
          29,
          30,
          31,
          32,
          33,
          34,
          35,
          36,
          37,
          38,
          39,
          40,
          41,
          42,
          43,
          44,
          45,
          46,
          47,
          48,
          49,
          50,
          51,
          52,
          53,
          54,
          55,
          56,
          57,
          58,
          59,
          60,
          61,
          62,
          63,
          64,
          65,
          66,
          67,
          68,
          69,
          70,
          71,
          72,
          73,
          74,
          75,
          76,
          77,
          78,
          79,
          80,
          81,
          82,
          83,
          84,
          85,
          86,
          87,
          88,
          89,
          90,
          91,
          92,
          93,
          94,
          95,
          96,
          97,
          98,
          99,
          100,
          101,
          102,
          103,
          104,
          105,
          106,
          107,
          108,
          109,
          110,
          111,
          112,
          113,
          114,
          115,
          116,
          117,
          118,
          119,
          120,
          121,
          122,
          123,
          124,
          125,
          126,
          127,
          128,
          129,
          130,
          131,
          132,
          133,
          134,
          135,
          136,
          137,
          138,
          139,
          140,
          141,
          142,
          143,
          144,
          145,
          146,
          147,
          148,
          149,
          150,
          151,
          152,
          153,
          154,
          155,
          156,
          157,
          158,
          159,
          160,
          161,
          162,
          163,
          164
        ],
        "AcquisitionTime": [
          "075057.852500",
          "075101.870000",
          "075103.877500",
          "075105.885000",
          "075107.895000",
          "075109.902500",
          "075111.910000",
          "075113.917500",
          "075115.925000",
          "075117.935000",
          "075119.942500",
          "075121.950000",
          "075123.957500",
          "075125.965000",
          "075127.975000",
          "075129.982500",
          "075131.990000",
          "075133.997500",
          "075136.007500",
          "075138.015000",
          "075140.022500",
          "075142.030000",
          "075144.037500",
          "075146.047500",
          "075148.055000",
          "075150.062500",
          "075152.070000",
          "075154.077500",
          "075156.087500",
          "075158.095000",
          "075200.102500",
          "075202.110000",
          "075204.117500",
          "075206.127500",
          "075208.135000",
          "075210.142500",
          "075212.150000",
          "075214.160000",
          "075216.167500",
          "075218.175000",
          "075220.182500",
          "075222.190000",
          "075224.200000",
          "075226.207500",
          "075228.215000",
          "075230.222500",
          "075232.230000",
          "075234.240000",
          "075236.247500",
          "075238.255000",
          "075240.262500",
          "075242.272500",
          "075244.280000",
          "075246.287500",
          "075248.295000",
          "075250.302500",
          "075252.312500",
          "075254.320000",
          "075256.327500",
          "075258.335000",
          "075300.342500",
          "075302.352500",
          "075304.360000",
          "075306.367500",
          "075308.375000",
          "075310.385000",
          "075312.392500",
          "075314.400000",
          "075316.407500",
          "075318.415000",
          "075320.425000",
          "075322.432500",
          "075324.440000",
          "075326.447500",
          "075328.455000",
          "075330.465000",
          "075332.472500",
          "075334.480000",
          "075336.487500",
          "075338.495000",
          "075340.505000",
          "075342.512500",
          "075344.520000",
          "075346.527500",
          "075348.537500",
          "075350.545000",
          "075352.552500",
          "075354.560000",
          "075356.567500",
          "075358.577500",
          "075400.585000",
          "075402.592500",
          "075404.600000",
          "075406.607500",
          "075408.617500",
          "075410.625000",
          "075412.632500",
          "075414.640000",
          "075416.650000",
          "075418.657500",
          "075420.665000",
          "075422.672500",
          "075424.680000",
          "075426.690000",
          "075428.697500",
          "075430.705000",
          "075432.712500",
          "075434.720000",
          "075436.730000",
          "075438.737500",
          "075440.745000",
          "075442.752500",
          "075444.762500",
          "075446.770000",
          "075448.777500",
          "075450.785000",
          "075452.792500",
          "075454.802500",
          "075456.810000",
          "075458.817500",
          "075500.825000",
          "075502.832500",
          "075504.842500",
          "075506.850000",
          "075508.857500",
          "075510.865000",
          "075512.875000",
          "075514.882500",
          "075516.890000",
          "075518.897500",
          "075520.905000",
          "075522.915000",
          "075524.922500",
          "075526.930000",
          "075528.937500",
          "075530.945000",
          "075532.955000",
          "075534.962500",
          "075536.970000",
          "075538.977500",
          "075540.985000",
          "075542.995000",
          "075545.002500",
          "075547.010000",
          "075549.017500",
          "075551.027500",
          "075553.035000",
          "075555.042500",
          "075557.050000",
          "075559.057500",
          "075601.067500",
          "075603.075000",
          "075605.082500",
          "075607.090000",
          "075609.097500",
          "075611.107500",
          "075613.115000",
          "075615.122500",
          "075617.130000",
          "075619.140000",
          "075621.147500",
          "075623.155000",
          "075625.162500",
          "075627.170000"
        ],
        "ContentTime": [
          "075141.109000",
          "075141.109000",
          "075141.109000",
          "075141.125000",
          "075141.125000",
          "075141.125000",
          "075141.125000",
          "075141.125000",
          "075141.140000",
          "075141.140000",
          "075141.140000",
          "075141.140000",
          "075141.140000",
          "075141.140000",
          "075141.140000",
          "075141.156000",
          "075141.156000",
          "075141.156000",
          "075141.156000",
          "075141.156000",
          "075221.093000",
          "075221.093000",
          "075221.109000",
          "075221.109000",
          "075221.109000",
          "075221.109000",
          "075221.109000",
          "075221.109000",
          "075221.125000",
          "075221.125000",
          "075221.125000",
          "075221.125000",
          "075221.125000",
          "075221.125000",
          "075221.125000",
          "075221.140000",
          "075221.140000",
          "075221.140000",
          "075221.140000",
          "075221.140000",
          "075301.093000",
          "075301.093000",
          "075301.093000",
          "075301.093000",
          "075301.109000",
          "075301.109000",
          "075301.109000",
          "075301.109000",
          "075301.109000",
          "075301.125000",
          "075301.125000",
          "075301.125000",
          "075301.125000",
          "075301.140000",
          "075301.140000",
          "075301.140000",
          "075301.140000",
          "075301.140000",
          "075301.140000",
          "075301.140000",
          "075341.093000",
          "075341.093000",
          "075341.093000",
          "075341.093000",
          "075341.109000",
          "075341.109000",
          "075341.109000",
          "075341.109000",
          "075341.109000",
          "075341.125000",
          "075341.125000",
          "075341.125000",
          "075341.125000",
          "075341.125000",
          "075341.140000",
          "075341.140000",
          "075341.140000",
          "075341.140000",
          "075341.140000",
          "075341.140000",
          "075421.093000",
          "075421.093000",
          "075421.093000",
          "075421.093000",
          "075421.109000",
          "075421.109000",
          "075421.125000",
          "075421.125000",
          "075421.125000",
          "075421.125000",
          "075421.140000",
          "075421.140000",
          "075421.140000",
          "075421.140000",
          "075421.140000",
          "075421.140000",
          "075421.140000",
          "075421.156000",
          "075421.156000",
          "075421.156000",
          "075501.093000",
          "075501.093000",
          "075501.093000",
          "075501.109000",
          "075501.109000",
          "075501.109000",
          "075501.109000",
          "075501.109000",
          "075501.109000",
          "075501.109000",
          "075501.125000",
          "075501.125000",
          "075501.125000",
          "075501.125000",
          "075501.125000",
          "075501.125000",
          "075501.125000",
          "075501.140000",
          "075501.140000",
          "075501.140000",
          "075541.093000",
          "075541.093000",
          "075541.093000",
          "075541.093000",
          "075541.109000",
          "075541.109000",
          "075541.109000",
          "075541.109000",
          "075541.109000",
          "075541.109000",
          "075541.125000",
          "075541.125000",
          "075541.125000",
          "075541.125000",
          "075541.140000",
          "075541.140000",
          "075541.140000",
          "075541.140000",
          "075541.140000",
          "075541.140000",
          "075621.093000",
          "075621.093000",
          "075621.093000",
          "075621.109000",
          "075621.109000",
          "075621.109000",
          "075621.109000",
          "075621.109000",
          "075621.109000",
          "075621.125000",
          "075621.125000",
          "075621.125000",
          "075621.125000",
          "075621.125000",
          "075621.140000",
          "075621.140000",
          "075621.140000",
          "075621.140000",
          "075621.140000",
          "075621.140000",
          "075627.750000",
          "075627.765000",
          "075627.765000",
          "075627.765000"
        ],
        "InstanceCreationTime": [
          "075141.109000",
          "075141.109000",
          "075141.109000",
          "075141.125000",
          "075141.125000",
          "075141.125000",
          "075141.125000",
          "075141.125000",
          "075141.140000",
          "075141.140000",
          "075141.140000",
          "075141.140000",
          "075141.140000",
          "075141.140000",
          "075141.140000",
          "075141.156000",
          "075141.156000",
          "075141.156000",
          "075141.156000",
          "075141.156000",
          "075221.093000",
          "075221.093000",
          "075221.109000",
          "075221.109000",
          "075221.109000",
          "075221.109000",
          "075221.109000",
          "075221.109000",
          "075221.125000",
          "075221.125000",
          "075221.125000",
          "075221.125000",
          "075221.125000",
          "075221.125000",
          "075221.125000",
          "075221.140000",
          "075221.140000",
          "075221.140000",
          "075221.140000",
          "075221.140000",
          "075301.093000",
          "075301.093000",
          "075301.093000",
          "075301.093000",
          "075301.109000",
          "075301.109000",
          "075301.109000",
          "075301.109000",
          "075301.109000",
          "075301.125000",
          "075301.125000",
          "075301.125000",
          "075301.125000",
          "075301.140000",
          "075301.140000",
          "075301.140000",
          "075301.140000",
          "075301.140000",
          "075301.140000",
          "075301.140000",
          "075341.093000",
          "075341.093000",
          "075341.093000",
          "075341.093000",
          "075341.109000",
          "075341.109000",
          "075341.109000",
          "075341.109000",
          "075341.109000",
          "075341.125000",
          "075341.125000",
          "075341.125000",
          "075341.125000",
          "075341.125000",
          "075341.140000",
          "075341.140000",
          "075341.140000",
          "075341.140000",
          "075341.140000",
          "075341.140000",
          "075421.093000",
          "075421.093000",
          "075421.093000",
          "075421.093000",
          "075421.109000",
          "075421.109000",
          "075421.125000",
          "075421.125000",
          "075421.125000",
          "075421.125000",
          "075421.140000",
          "075421.140000",
          "075421.140000",
          "075421.140000",
          "075421.140000",
          "075421.140000",
          "075421.140000",
          "075421.156000",
          "075421.156000",
          "075421.156000",
          "075501.093000",
          "075501.093000",
          "075501.093000",
          "075501.109000",
          "075501.109000",
          "075501.109000",
          "075501.109000",
          "075501.109000",
          "075501.109000",
          "075501.109000",
          "075501.125000",
          "075501.125000",
          "075501.125000",
          "075501.125000",
          "075501.125000",
          "075501.125000",
          "075501.125000",
          "075501.140000",
          "075501.140000",
          "075501.140000",
          "075541.093000",
          "075541.093000",
          "075541.093000",
          "075541.093000",
          "075541.109000",
          "075541.109000",
          "075541.109000",
          "075541.109000",
          "075541.109000",
          "075541.109000",
          "075541.125000",
          "075541.125000",
          "075541.125000",
          "075541.125000",
          "075541.140000",
          "075541.140000",
          "075541.140000",
          "075541.140000",
          "075541.140000",
          "075541.140000",
          "075621.093000",
          "075621.093000",
          "075621.093000",
          "075621.109000",
          "075621.109000",
          "075621.109000",
          "075621.109000",
          "075621.109000",
          "075621.109000",
          "075621.125000",
          "075621.125000",
          "075621.125000",
          "075621.125000",
          "075621.125000",
          "075621.140000",
          "075621.140000",
          "075621.140000",
          "075621.140000",
          "075621.140000",
          "075621.140000",
          "075627.750000",
          "075627.765000",
          "075627.765000",
          "075627.765000"
        ],
        "InstanceNumber": [
          1,
          2,
          3,
          4,
          5,
          6,
          7,
          8,
          9,
          10,
          11,
          12,
          13,
          14,
          15,
          16,
          17,
          18,
          19,
          20,
          21,
          22,
          23,
          24,
          25,
          26,
          27,
          28,
          29,
          30,
          31,
          32,
          33,
          34,
          35,
          36,
          37,
          38,
          39,
          40,
          41,
          42,
          43,
          44,
          45,
          46,
          47,
          48,
          49,
          50,
          51,
          52,
          53,
          54,
          55,
          56,
          57,
          58,
          59,
          60,
          61,
          62,
          63,
          64,
          65,
          66,
          67,
          68,
          69,
          70,
          71,
          72,
          73,
          74,
          75,
          76,
          77,
          78,
          79,
          80,
          81,
          82,
          83,
          84,
          85,
          86,
          87,
          88,
          89,
          90,
          91,
          92,
          93,
          94,
          95,
          96,
          97,
          98,
          99,
          100,
          101,
          102,
          103,
          104,
          105,
          106,
          107,
          108,
          109,
          110,
          111,
          112,
          113,
          114,
          115,
          116,
          117,
          118,
          119,
          120,
          121,
          122,
          123,
          124,
          125,
          126,
          127,
          128,
          129,
          130,
          131,
          132,
          133,
          134,
          135,
          136,
          137,
          138,
          139,
          140,
          141,
          142,
          143,
          144,
          145,
          146,
          147,
          148,
          149,
          150,
          151,
          152,
          153,
          154,
          155,
          156,
          157,
          158,
          159,
          160,
          161,
          162,
          163,
          164
        ],
        "WindowCenter": [
          1033.0,
          1033.0,
          1034.0,
          1036.0,
          1035.0,
          1034.0,
          1033.0,
          1034.0,
          1037.0,
          1034.0,
          1033.0,
          1035.0,
          1033.0,
          1034.0,
          1034.0,
          1033.0,
          1034.0,
          1039.0,
          1037.0,
          1034.0,
          1034.0,
          1036.0,
          1035.0,
          1035.0,
          1037.0,
          1036.0,
          1036.0,
          1034.0,
          1035.0,
          1034.0,
          1034.0,
          1035.0,
          1034.0,
          1034.0,
          1036.0,
          1036.0,
          1033.0,
          1034.0,
          1033.0,
          1034.0,
          1035.0,
          1035.0,
          1036.0,
          1036.0,
          1034.0,
          1033.0,
          1034.0,
          1037.0,
          1040.0,
          1038.0,
          1043.0,
          1041.0,
          1041.0,
          1042.0,
          1039.0,
          1039.0,
          1042.0,
          1039.0,
          1035.0,
          1034.0,
          1033.0,
          1033.0,
          1031.0,
          1032.0,
          1033.0,
          1033.0,
          1033.0,
          1036.0,
          1037.0,
          1036.0,
          1035.0,
          1034.0,
          1033.0,
          1032.0,
          1036.0,
          1038.0,
          1036.0,
          1036.0,
          1037.0,
          1035.0,
          1038.0,
          1039.0,
          1040.0,
          1040.0,
          1040.0,
          1042.0,
          1040.0,
          1037.0,
          1035.0,
          1033.0,
          1032.0,
          1033.0,
          1035.0,
          1036.0,
          1032.0,
          1033.0,
          1033.0,
          1035.0,
          1037.0,
          1036.0,
          1034.0,
          1037.0,
          1037.0,
          1035.0,
          1036.0,
          1036.0,
          1037.0,
          1038.0,
          1037.0,
          1035.0,
          1036.0,
          1038.0,
          1036.0,
          1036.0,
          1038.0,
          1038.0,
          1037.0,
          1035.0,
          1037.0,
          1036.0,
          1037.0,
          1041.0,
          1038.0,
          1033.0,
          1033.0,
          1031.0,
          1030.0,
          1032.0,
          1032.0,
          1030.0,
          1030.0,
          1032.0,
          1035.0,
          1033.0,
          1034.0,
          1038.0,
          1038.0,
          1037.0,
          1035.0,
          1035.0,
          1038.0,
          1038.0,
          1036.0,
          1037.0,
          1039.0,
          1039.0,
          1039.0,
          1039.0,
          1038.0,
          1037.0,
          1037.0,
          1038.0,
          1035.0,
          1038.0,
          1039.0,
          1041.0,
          1037.0,
          1036.0,
          1038.0,
          1038.0,
          1037.0,
          1037.0,
          1035.0,
          1036.0
        ],
        "WindowWidth": [
          2722.0,
          2725.0,
          2743.0,
          2746.0,
          2738.0,
          2728.0,
          2733.0,
          2736.0,
          2741.0,
          2733.0,
          2734.0,
          2744.0,
          2734.0,
          2731.0,
          2721.0,
          2722.0,
          2733.0,
          2752.0,
          2736.0,
          2726.0,
          2734.0,
          2734.0,
          2733.0,
          2731.0,
          2740.0,
          2739.0,
          2743.0,
          2736.0,
          2736.0,
          2732.0,
          2733.0,
          2731.0,
          2725.0,
          2732.0,
          2745.0,
          2736.0,
          2731.0,
          2729.0,
          2724.0,
          2724.0,
          2731.0,
          2736.0,
          2744.0,
          2740.0,
          2729.0,
          2723.0,
          2724.0,
          2732.0,
          2745.0,
          2747.0,
          2760.0,
          2754.0,
          2744.0,
          2751.0,
          2745.0,
          2752.0,
          2764.0,
          2749.0,
          2741.0,
          2730.0,
          2729.0,
          2726.0,
          2717.0,
          2725.0,
          2722.0,
          2718.0,
          2724.0,
          2742.0,
          2743.0,
          2733.0,
          2721.0,
          2721.0,
          2720.0,
          2725.0,
          2743.0,
          2746.0,
          2732.0,
          2729.0,
          2736.0,
          2731.0,
          2745.0,
          2740.0,
          2736.0,
          2748.0,
          2750.0,
          2765.0,
