{
  "aor": 0.0009683536585365854,
  "aqi": 0.006769938231707317,
  "bids_meta": {
    "AcquisitionMatrixPE": 96,
    "AcquisitionNumber": 1,
    "AcquisitionTime": "08:28:59.882500",
    "BandwidthPerPixelPhaseEncode": 52.083,
    "BaseResolution": 96,
    "ConversionSoftware": "dcm2niix",
    "ConversionSoftwareVersion": "v1.0.20180622 GCC6.3.0",
    "DerivedVendorReportedEchoSpacing": 0.000600004,
    "DeviceSerialNumber": "18926",
    "DwellTime": 2.6e-06,
    "EchoTime": 0.025,
    "EffectiveEchoSpacing": 0.000200001,
    "FlipAngle": 50,
    "ImageOrientationPatientDICOM": [
      0.999992,
      0.00067012,
      0.00404905,
      2.11009e-10,
      0.98658,
      -0.16328
    ],
    "ImageType": [
      "ORIGINAL",
      "PRIMARY",
      "M",
      "ND",
      "ECHO",
      "00",
      "MOSAIC"
    ],
    "InPlanePhaseEncodingDirectionDICOM": "ROW",
    "InstitutionName": "NIMH",
    "InstitutionalDepartmentName": "Department",
    "MRAcquisitionType": "2D",
    "MagneticFieldStrength": 6.98,
    "Manufacturer": "Siemens",
    "ManufacturersModelName": "Investigational_Device_7T",
    "Modality": "MR",
    "ParallelReductionFactorInPlane": 3,
    "PartialFourier": 1,
    "PatientPosition": "HFS",
    "PercentPhaseFOV": 100,
    "PhaseEncodingDirection": "i",
    "PhaseEncodingSteps": 94,
    "PhaseResolution": 1,
    "PixelBandwidth": 2003,
    "ProcedureStepDescription": "MRI_Procedure_Limited",
    "ProtocolName": "NIH_EPI_2.0iso_TR2_Run11",
    "PulseSequenceDetails": "%CustomerSeq%_inati_nih_epi",
    "ReceiveCoilName": "32Ch_Head_7T",
    "ReconMatrixPE": 96,
    "RepetitionTime": 2,
    "SAR": 0.0759875,
    "ScanningSequence": "EP",
    "SequenceName": "epfid2d1_96",
    "SequenceVariant": "SK",
    "SeriesDescription": "NIH_EPI_2.0iso_TR2_Run11",
    "SeriesNumber": 15,
    "ShimSetting": [
      -131,
      290,
      1181,
      1697,
      -139,
      732,
      180,
      -249
    ],
    "SliceThickness": 2,
    "SliceTiming": [
      1.0025,
      0,
      1.04,
      0.0375,
      1.0775,
      0.075,
      1.115,
      0.1125,
      1.1525,
      0.1475,
      1.19,
      0.185,
      1.2275,
      0.2225,
      1.265,
      0.26,
      1.3,
      0.2975,
      1.3375,
      0.335,
      1.375,
      0.3725,
      1.4125,
      0.41,
      1.45,
      0.445,
      1.4875,
      0.4825,
      1.525,
      0.52,
      1.5625,
      0.5575,
      1.5975,
      0.595,
      1.635,
      0.6325,
      1.6725,
      0.67,
      1.71,
      0.705,
      1.7475,
      0.7425,
      1.785,
      0.78,
      1.8225,
      0.8175,
      1.8575,
      0.855,
      1.895,
      0.8925,
      1.9325,
      0.93,
      1.97,
      0.9675
    ],
    "SoftwareVersions": "syngo_MR_B17",
    "SpacingBetweenSlices": 2,
    "StationName": "FMRIFD7T",
    "TaskName": "FullFovNoAttentionTask",
    "TotalReadoutTime": 0.0190001,
    "TxRefAmp": 275,
    "dataset": "ds001555",
    "dcmmeta_affine": [
      [
        -1.9999831914901733,
        4.2201880878778297e-10,
        0.008208253420889378,
        95.76705169677734
      ],
      [
        -0.0013402394251897931,
        1.973159670829773,
        -0.32655632495880127,
        -61.09407043457031
      ],
      [
        0.008098097518086433,
        0.32655906677246094,
        1.9731431007385254,
        -51.69081115722656
      ],
      [
        0.0,
        0.0,
        0.0,
        1.0
      ]
    ],
    "dcmmeta_reorient_transform": [
      [
        0.0,
        -1.0,
        0.0,
        95.0
      ],
      [
        1.0,
        0.0,
        0.0,
        0.0
      ],
      [
        0.0,
        0.0,
        1.0,
        0.0
      ],
      [
        0.0,
        0.0,
        0.0,
        1.0
      ]
    ],
    "dcmmeta_shape": [
      96,
      96,
      54,
      164
    ],
    "dcmmeta_slice_dim": 2,
    "dcmmeta_version": 0.6,
    "global": {
      "const": {
        "AcquisitionMatrix": [
          0,
          96,
          96,
          0
        ],
        "Allergies": "No Known Allergies",
        "AngioFlag": "N",
        "BitsAllocated": 16,
        "BitsStored": 12,
        "Columns": 768,
        "EchoNumbers": 1,
        "EchoTime": 25.0,
        "EchoTrainLength": 1,
        "FlipAngle": 50.0,
        "HighBit": 11,
        "ImageOrientationPatient": [
          0.99999157803662,
          0.00067011969073,
          0.00404904870684,
          2.110094e-10,
          0.98657984636313,
          -0.1632795356133
        ],
        "ImagePositionPatient": [
          -767.761392775,
          -789.78807875724,
          86.335187039869
        ],
        "ImageType": [
          "ORIGINAL",
          "PRIMARY",
          "M",
          "ND",
          "ECHO_00",
          "MOSAIC"
        ],
        "ImagedNucleus": "1H",
        "ImagingFrequency": 297.205166,
        "InPlanePhaseEncodingDirection": "ROW",
        "LargestImagePixelValue": 4095,
        "MRAcquisitionType": "2D",
        "MagneticFieldStrength": 6.98,
        "Manufacturer": "SIEMENS",
        "ManufacturerModelName": "Investigational_Device_7T",
        "Modality": "MR",
        "NumberOfAverages": 1.0,
        "NumberOfPhaseEncodingSteps": 94,
        "PercentPhaseFieldOfView": 100.0,
        "PercentSampling": 100.0,
        "PerformedProcedureStepStartTime": "071100.015000",
        "PhotometricInterpretation": "MONOCHROME2",
        "PixelBandwidth": 2003.0,
        "PixelRepresentation": 0,
        "PixelSpacing": [
          2.0,
          2.0
        ],
        "PositionReferenceIndicator": "",
        "ProcedureCodeSequence": [
          {
            "CodeMeaning": "MRI Procedure Limited",
            "CodeValue": "MI01491",
            "CodingSchemeDesignator": "USA Standard",
            "ContextIdentifier": "4000112205"
          }
        ],
        "ProtocolName": "NIH_EPI_2.0iso_TR2_Run11",
        "ReferencedStudySequence": [
          {
            "ReferencedSOPClassUID": "1.2.840.10008.3.1.2.3.1",
            "ReferencedSOPInstanceUID": "1.2.840.113564.9.1.2723958737.61.2.5000078012"
          }
        ],
        "RepetitionTime": 2000.0,
        "RequestedProcedureCodeSequence": [
          {
            "CodeMeaning": "MRI Procedure Limited",
            "CodeValue": "MI01491",
            "CodingSchemeDesignator": "USA Standard",
            "ContextIdentifier": "4000112205"
          }
        ],
        "RequestingService": "MHED",
        "Rows": 768,
        "SAR": 0.07598745730917,
        "SamplesPerPixel": 1,
        "ScanningSequence": "EP",
        "SequenceName": "epfid2d1_96",
        "SequenceVariant": "SK",
        "SeriesDescription": "NIH_EPI_2.0iso_TR2_Run11",
        "SeriesNumber": 15,
        "SliceLocation": -40.628316438469,
        "SliceThickness": 2.0,
        "SmallestImagePixelValue": 0,
        "SoftwareVersions": "syngo MR B17",
        "SpacingBetweenSlices": 2.0000000184226,
        "TransmitCoilName": "32Ch_Head_7T",
        "VariableFlipAngleFlag": "N",
        "WindowCenterWidthExplanation": "Algo1",
        "dBdt": 0.0
      },
      "slices": {}
    },
    "modality": "bold",
    "run_id": 12,
    "session_id": "08",
    "subject_id": "002",
    "task_id": "FullFovNoAttentionTask",
    "time": {
      "samples": {
        "AcquisitionNumber": [
          1,
          2,
          3,
          4,
          5,
          6,
          7,
          8,
          9,
          10,
          11,
          12,
          13,
          14,
          15,
          16,
          17,
          18,
          19,
          20,
          21,
          22,
          23,
          24,
          25,
          26,
          27,
          28,
          29,
          30,
          31,
          32,
          33,
          34,
          35,
          36,
          37,
          38,
          39,
          40,
          41,
          42,
          43,
          44,
          45,
          46,
          47,
          48,
          49,
          50,
          51,
          52,
          53,
          54,
          55,
          56,
          57,
          58,
          59,
          60,
          61,
          62,
          63,
          64,
          65,
          66,
          67,
          68,
          69,
          70,
          71,
          72,
          73,
          74,
          75,
          76,
          77,
          78,
          79,
          80,
          81,
          82,
          83,
          84,
          85,
          86,
          87,
          88,
          89,
          90,
          91,
          92,
          93,
          94,
          95,
          96,
          97,
          98,
          99,
          100,
          101,
          102,
          103,
          104,
          105,
          106,
          107,
          108,
          109,
          110,
          111,
          112,
          113,
          114,
          115,
          116,
          117,
          118,
          119,
          120,
          121,
          122,
          123,
          124,
          125,
          126,
          127,
          128,
          129,
          130,
          131,
          132,
          133,
          134,
          135,
          136,
          137,
          138,
          139,
          140,
          141,
          142,
          143,
          144,
          145,
          146,
          147,
          148,
          149,
          150,
          151,
          152,
          153,
          154,
          155,
          156,
          157,
          158,
          159,
          160,
          161,
          162,
          163,
          164
        ],
        "AcquisitionTime": [
          "082859.882500",
          "082903.900000",
          "082905.907500",
          "082907.915000",
          "082909.925000",
          "082911.932500",
          "082913.940000",
          "082915.947500",
          "082917.955000",
          "082919.965000",
          "082921.972500",
          "082923.980000",
          "082925.987500",
          "082927.995000",
          "082930.005000",
          "082932.012500",
          "082934.020000",
          "082936.027500",
          "082938.035000",
          "082940.045000",
          "082942.052500",
          "082944.060000",
          "082946.067500",
          "082948.077500",
          "082950.085000",
          "082952.092500",
          "082954.100000",
          "082956.107500",
          "082958.117500",
          "083000.125000",
          "083002.132500",
          "083004.140000",
          "083006.147500",
          "083008.157500",
          "083010.165000",
          "083012.172500",
          "083014.180000",
          "083016.190000",
          "083018.197500",
          "083020.205000",
          "083022.212500",
          "083024.220000",
          "083026.230000",
          "083028.237500",
          "083030.245000",
          "083032.252500",
          "083034.260000",
          "083036.270000",
          "083038.277500",
          "083040.285000",
          "083042.292500",
          "083044.302500",
          "083046.310000",
          "083048.317500",
          "083050.325000",
          "083052.332500",
          "083054.342500",
          "083056.350000",
          "083058.357500",
          "083100.365000",
          "083102.372500",
          "083104.382500",
          "083106.390000",
          "083108.397500",
          "083110.405000",
          "083112.412500",
          "083114.422500",
          "083116.430000",
          "083118.437500",
          "083120.445000",
          "083122.455000",
          "083124.462500",
          "083126.470000",
          "083128.477500",
          "083130.485000",
          "083132.495000",
          "083134.502500",
          "083136.510000",
          "083138.517500",
          "083140.525000",
          "083142.535000",
          "083144.542500",
          "083146.550000",
          "083148.557500",
          "083150.567500",
          "083152.575000",
          "083154.582500",
          "083156.590000",
          "083158.597500",
          "083200.607500",
          "083202.615000",
          "083204.622500",
          "083206.630000",
          "083208.637500",
          "083210.647500",
          "083212.655000",
          "083214.662500",
          "083216.670000",
          "083218.680000",
          "083220.687500",
          "083222.695000",
          "083224.702500",
          "083226.710000",
          "083228.720000",
          "083230.727500",
          "083232.735000",
          "083234.742500",
          "083236.750000",
          "083238.760000",
          "083240.767500",
          "083242.775000",
          "083244.782500",
          "083246.792500",
          "083248.800000",
          "083250.807500",
          "083252.815000",
          "083254.822500",
          "083256.832500",
          "083258.840000",
          "083300.847500",
          "083302.855000",
          "083304.862500",
          "083306.872500",
          "083308.880000",
          "083310.887500",
          "083312.895000",
          "083314.902500",
          "083316.912500",
          "083318.920000",
          "083320.927500",
          "083322.935000",
          "083324.945000",
          "083326.952500",
          "083328.960000",
          "083330.967500",
          "083332.975000",
          "083334.985000",
          "083336.992500",
          "083339.000000",
          "083341.007500",
          "083343.015000",
          "083345.025000",
          "083347.032500",
          "083349.040000",
          "083351.047500",
          "083353.057500",
          "083355.065000",
          "083357.072500",
          "083359.080000",
          "083401.087500",
          "083403.097500",
          "083405.105000",
          "083407.112500",
          "083409.120000",
          "083411.127500",
          "083413.137500",
          "083415.145000",
          "083417.152500",
          "083419.160000",
          "083421.170000",
          "083423.177500",
          "083425.185000",
          "083427.192500",
          "083429.200000"
        ],
        "ContentTime": [
          "082921.109000",
          "082921.109000",
          "082921.109000",
          "082921.109000",
          "082921.125000",
          "082921.125000",
          "082921.125000",
          "082921.125000",
          "083001.093000",
          "083001.109000",
          "083001.109000",
          "083001.109000",
          "083001.109000",
          "083001.109000",
          "083001.109000",
          "083001.140000",
          "083001.140000",
          "083001.140000",
          "083001.140000",
          "083001.140000",
          "083001.140000",
          "083001.156000",
          "083001.156000",
          "083001.156000",
          "083001.156000",
          "083001.156000",
          "083001.156000",
          "083001.156000",
          "083001.171000",
          "083001.171000",
          "083041.093000",
          "083041.093000",
          "083041.109000",
          "083041.109000",
          "083041.109000",
          "083041.109000",
          "083041.109000",
          "083041.125000",
          "083041.125000",
          "083041.125000",
          "083041.125000",
          "083041.125000",
          "083041.125000",
          "083041.125000",
          "083041.140000",
          "083041.140000",
          "083041.140000",
          "083041.140000",
          "083041.140000",
          "083041.140000",
          "083121.093000",
          "083121.093000",
          "083121.093000",
          "083121.109000",
          "083121.109000",
          "083121.109000",
          "083121.109000",
          "083121.125000",
          "083121.125000",
          "083121.125000",
          "083121.125000",
          "083121.125000",
          "083121.125000",
          "083121.125000",
          "083121.140000",
          "083121.140000",
          "083121.140000",
          "083121.140000",
          "083121.140000",
          "083121.140000",
          "083201.093000",
          "083201.109000",
          "083201.109000",
          "083201.109000",
          "083201.109000",
          "083201.109000",
          "083201.109000",
          "083201.125000",
          "083201.125000",
          "083201.125000",
          "083201.125000",
          "083201.125000",
          "083201.140000",
          "083201.140000",
          "083201.140000",
          "083201.140000",
          "083201.140000",
          "083201.140000",
          "083201.156000",
          "083201.156000",
          "083241.093000",
          "083241.109000",
          "083241.109000",
          "083241.109000",
          "083241.109000",
          "083241.125000",
          "083241.125000",
          "083241.125000",
          "083241.125000",
          "083241.125000",
          "083241.125000",
          "083241.140000",
          "083241.140000",
          "083241.140000",
          "083241.140000",
          "083241.140000",
          "083241.140000",
          "083241.140000",
          "083241.156000",
          "083241.156000",
          "083321.093000",
          "083321.093000",
          "083321.093000",
          "083321.109000",
          "083321.109000",
          "083321.109000",
          "083321.109000",
          "083321.109000",
          "083321.109000",
          "083321.125000",
          "083321.125000",
          "083321.125000",
          "083321.125000",
          "083321.125000",
          "083321.125000",
          "083321.125000",
          "083321.140000",
          "083321.140000",
          "083321.140000",
          "083321.140000",
          "083401.093000",
          "083401.093000",
          "083401.109000",
          "083401.109000",
          "083401.109000",
          "083401.109000",
          "083401.109000",
          "083401.109000",
          "083401.109000",
          "083401.125000",
          "083401.125000",
          "083401.125000",
          "083401.125000",
          "083401.125000",
          "083401.125000",
          "083401.125000",
          "083401.140000",
          "083401.140000",
          "083401.140000",
          "083401.140000",
          "083428.843000",
          "083428.843000",
          "083428.843000",
          "083428.859000",
          "083428.859000",
          "083428.859000",
          "083428.859000",
          "083428.859000",
          "083428.859000",
          "083428.859000",
          "083428.875000",
          "083428.875000",
          "083428.875000",
          "083428.875000"
        ],
        "InstanceCreationTime": [
          "082921.109000",
          "082921.109000",
          "082921.109000",
          "082921.109000",
          "082921.125000",
          "082921.125000",
          "082921.125000",
          "082921.125000",
          "083001.093000",
          "083001.109000",
          "083001.109000",
          "083001.109000",
          "083001.109000",
          "083001.109000",
          "083001.109000",
          "083001.140000",
          "083001.140000",
          "083001.140000",
          "083001.140000",
          "083001.140000",
          "083001.140000",
          "083001.156000",
          "083001.156000",
          "083001.156000",
          "083001.156000",
          "083001.156000",
          "083001.156000",
          "083001.156000",
          "083001.171000",
          "083001.171000",
          "083041.093000",
          "083041.093000",
          "083041.109000",
          "083041.109000",
          "083041.109000",
          "083041.109000",
          "083041.109000",
          "083041.125000",
          "083041.125000",
          "083041.125000",
          "083041.125000",
          "083041.125000",
          "083041.125000",
          "083041.125000",
          "083041.140000",
          "083041.140000",
          "083041.140000",
          "083041.140000",
          "083041.140000",
          "083041.140000",
          "083121.093000",
          "083121.093000",
          "083121.093000",
          "083121.109000",
          "083121.109000",
          "083121.109000",
          "083121.109000",
          "083121.125000",
          "083121.125000",
          "083121.125000",
          "083121.125000",
          "083121.125000",
          "083121.125000",
          "083121.125000",
          "083121.140000",
          "083121.140000",
          "083121.140000",
          "083121.140000",
          "083121.140000",
          "083121.140000",
          "083201.093000",
          "083201.109000",
          "083201.109000",
          "083201.109000",
          "083201.109000",
          "083201.109000",
          "083201.109000",
          "083201.125000",
          "083201.125000",
          "083201.125000",
          "083201.125000",
          "083201.125000",
          "083201.140000",
          "083201.140000",
          "083201.140000",
          "083201.140000",
          "083201.140000",
          "083201.140000",
          "083201.156000",
          "083201.156000",
          "083241.093000",
          "083241.109000",
          "083241.109000",
          "083241.109000",
          "083241.109000",
          "083241.125000",
          "083241.125000",
          "083241.125000",
          "083241.125000",
          "083241.125000",
          "083241.125000",
          "083241.140000",
          "083241.140000",
          "083241.140000",
          "083241.140000",
          "083241.140000",
          "083241.140000",
          "083241.140000",
          "083241.156000",
          "083241.156000",
          "083321.093000",
          "083321.093000",
          "083321.093000",
          "083321.109000",
          "083321.109000",
          "083321.109000",
          "083321.109000",
          "083321.109000",
          "083321.109000",
          "083321.125000",
          "083321.125000",
          "083321.125000",
          "083321.125000",
          "083321.125000",
          "083321.125000",
          "083321.125000",
          "083321.140000",
          "083321.140000",
          "083321.140000",
          "083321.140000",
          "083401.093000",
          "083401.093000",
          "083401.109000",
          "083401.109000",
          "083401.109000",
          "083401.109000",
          "083401.109000",
          "083401.109000",
          "083401.109000",
          "083401.125000",
          "083401.125000",
          "083401.125000",
          "083401.125000",
          "083401.125000",
          "083401.125000",
          "083401.125000",
          "083401.140000",
          "083401.140000",
          "083401.140000",
          "083401.140000",
          "083428.843000",
          "083428.843000",
          "083428.843000",
          "083428.859000",
          "083428.859000",
          "083428.859000",
          "083428.859000",
          "083428.859000",
          "083428.859000",
          "083428.859000",
          "083428.875000",
          "083428.875000",
          "083428.875000",
          "083428.875000"
        ],
        "InstanceNumber": [
          1,
          2,
          3,
          4,
          5,
          6,
          7,
          8,
          9,
          10,
          11,
          12,
          13,
          14,
          15,
          16,
          17,
          18,
          19,
          20,
          21,
          22,
          23,
          24,
          25,
          26,
          27,
          28,
          29,
          30,
          31,
          32,
          33,
          34,
          35,
          36,
          37,
          38,
          39,
          40,
          41,
          42,
          43,
          44,
          45,
          46,
          47,
          48,
          49,
          50,
          51,
          52,
          53,
          54,
          55,
          56,
          57,
          58,
          59,
          60,
          61,
          62,
          63,
          64,
          65,
          66,
          67,
          68,
          69,
          70,
          71,
          72,
          73,
          74,
          75,
          76,
          77,
          78,
          79,
          80,
          81,
          82,
          83,
          84,
          85,
          86,
          87,
          88,
          89,
          90,
          91,
          92,
          93,
          94,
          95,
          96,
          97,
          98,
          99,
          100,
          101,
          102,
          103,
          104,
          105,
          106,
          107,
          108,
          109,
          110,
          111,
          112,
          113,
          114,
          115,
          116,
          117,
          118,
          119,
          120,
          121,
          122,
          123,
          124,
          125,
          126,
          127,
          128,
          129,
          130,
          131,
          132,
          133,
          134,
          135,
          136,
          137,
          138,
          139,
          140,
          141,
          142,
          143,
          144,
          145,
          146,
          147,
          148,
          149,
          150,
          151,
          152,
          153,
          154,
          155,
          156,
          157,
          158,
          159,
          160,
          161,
          162,
          163,
          164
        ],
        "WindowCenter": [
          1036.0,
          1038.0,
          1038.0,
          1034.0,
          1033.0,
          1033.0,
          1033.0,
          1036.0,
          1035.0,
          1035.0,
          1033.0,
          1033.0,
          1032.0,
          1033.0,
          1035.0,
          1035.0,
          1036.0,
          1037.0,
          1036.0,
          1036.0,
          1036.0,
          1038.0,
          1037.0,
          1035.0,
          1035.0,
          1035.0,
          1035.0,
          1034.0,
          1034.0,
          1035.0,
          1035.0,
          1035.0,
          1036.0,
          1037.0,
          1033.0,
          1033.0,
          1034.0,
          1033.0,
          1035.0,
          1035.0,
          1034.0,
          1032.0,
          1032.0,
          1032.0,
          1032.0,
          1032.0,
          1034.0,
          1035.0,
          1033.0,
          1034.0,
          1034.0,
          1034.0,
          1035.0,
          1035.0,
          1036.0,
          1037.0,
          1037.0,
          1038.0,
          1038.0,
          1039.0,
          1036.0,
          1033.0,
          1030.0,
          1029.0,
          1029.0,
          1030.0,
          1031.0,
          1031.0,
          1030.0,
          1030.0,
          1031.0,
          1033.0,
          1031.0,
          1031.0,
          1033.0,
          1035.0,
          1034.0,
          1036.0,
          1037.0,
          1034.0,
          1034.0,
          1037.0,
          1036.0,
          1036.0,
          1036.0,
          1035.0,
          1036.0,
          1037.0,
          1034.0,
          1037.0,
          1039.0,
          1036.0,
          1034.0,
          1030.0,
          1031.0,
          1034.0,
          1037.0,
          1035.0,
          1034.0,
          1035.0,
          1038.0,
          1034.0,
          1031.0,
          1029.0,
          1029.0,
          1030.0,
          1030.0,
          1032.0,
          1033.0,
          1034.0,
          1035.0,
          1036.0,
          1037.0,
          1037.0,
          1036.0,
          1037.0,
          1037.0,
          1035.0,
          1035.0,
          1035.0,
          1035.0,
          1036.0,
          1036.0,
          1037.0,
          1037.0,
          1038.0,
          1036.0,
          1036.0,
          1040.0,
          1038.0,
          1036.0,
          1033.0,
          1030.0,
          1029.0,
          1032.0,
          1031.0,
          1029.0,
          1031.0,
          1033.0,
          1033.0,
          1032.0,
          1031.0,
          1033.0,
          1033.0,
          1033.0,
          1033.0,
          1035.0,
          1036.0,
          1034.0,
          1034.0,
          1038.0,
          1038.0,
          1038.0,
          1037.0,
          1035.0,
          1038.0,
          1037.0,
          1036.0,
          1034.0,
          1030.0,
          1033.0,
          1034.0,
          1036.0,
          1034.0
        ],
        "WindowWidth": [
          2737.0,
          2745.0,
          2739.0,
          2725.0,
          2717.0,
          2720.0,
          2721.0,
          2738.0,
          2731.0,
          2728.0,
          2727.0,
          2722.0,
          2719.0,
          2720.0,
          2730.0,
          2734.0,
          2736.0,
          2734.0,
          2730.0,
          2725.0,
          2729.0,
          2732.0,
          2731.0,
          2726.0,
          2725.0,
          2731.0,
          2725.0,
          2726.0,
          2722.0,
          2719.0,
          2724.0,
          2733.0,
          2733.0,
          2734.0,
          2717.0,
          2713.0,
          2718.0,
          2724.0,
          2732.0,
          2728.0,
          2721.0,
          2715.0,
          2713.0,
          2709.0,
          2713.0,
          2714.0,
          2719.0,
          2719.0,
          2712.0,
          2718.0,
          2721.0,
          2723.0,
          2721.0,
          2717.0,
          2726.0,
          2730.0,
          2733.0,
          2741.0,
          2748.0,
          2746.0,
          2735.0,
          2718.0,
          2711.0,
          2704.0,
          2704.0,
          2711.0,
          2709.0,
          2707.0,
          2702.0,
          2709.0,
          2717.0,
          2722.0,
          2709.0,
          2706.0,
          2716.0,
          2722.0,
          2723.0,
          2729.0,
          2731.0,
          2723.0,
          2723.0,
          2731.0,
          2726.0,
          2730.0,
          2727.0,
