{
  "aor": 0.0012098170731707318,
  "aqi": 0.004048681585365853,
  "bids_meta": {
    "AcquisitionMatrixPE": 96,
    "AcquisitionNumber": 1,
    "AcquisitionTime": "13:56:41.245000",
    "BandwidthPerPixelPhaseEncode": 52.083,
    "BaseResolution": 96,
    "BodyPartExamined": "HEAD",
    "ConversionSoftware": "dcm2niix",
    "ConversionSoftwareVersion": "v1.0.20180622 GCC6.3.0",
    "DerivedVendorReportedEchoSpacing": 0.000600004,
    "DeviceSerialNumber": "18926",
    "DwellTime": 2.6e-06,
    "EchoTime": 0.025,
    "EffectiveEchoSpacing": 0.000200001,
    "FlipAngle": 50,
    "ImageOrientationPatientDICOM": [
      0.999992,
      0.00067012,
      0.00404905,
      2.11009e-10,
      0.98658,
      -0.16328
    ],
    "ImageType": [
      "ORIGINAL",
      "PRIMARY",
      "M",
      "ND",
      "ECHO",
      "00",
      "MOSAIC"
    ],
    "InPlanePhaseEncodingDirectionDICOM": "ROW",
    "InstitutionName": "NIMH",
    "InstitutionalDepartmentName": "Department",
    "MRAcquisitionType": "2D",
    "MagneticFieldStrength": 6.98,
    "Manufacturer": "Siemens",
    "ManufacturersModelName": "Investigational_Device_7T",
    "Modality": "MR",
    "ParallelReductionFactorInPlane": 3,
    "PartialFourier": 1,
    "PatientPosition": "HFS",
    "PercentPhaseFOV": 100,
    "PhaseEncodingDirection": "i",
    "PhaseEncodingSteps": 94,
    "PhaseResolution": 1,
    "PixelBandwidth": 2003,
    "ProcedureStepDescription": "MRI_Procedure_Limited",
    "ProtocolName": "NIH_EPI_2.0iso_TR2_Run08",
    "PulseSequenceDetails": "%CustomerSeq%_inati_nih_epi",
    "ReceiveCoilName": "32Ch_Head_7T",
    "ReconMatrixPE": 96,
    "RepetitionTime": 2,
    "SAR": 0.0772875,
    "ScanningSequence": "EP",
    "SequenceName": "epfid2d1_96",
    "SequenceVariant": "SK",
    "SeriesDescription": "NIH_EPI_2.0iso_TR2_Run08",
    "SeriesNumber": 12,
    "ShimSetting": [
      -82,
      284,
      1186,
      1731,
      -62,
      609,
      209,
      -258
    ],
    "SliceThickness": 2,
    "SliceTiming": [
      1.0025,
      0,
      1.04,
      0.035,
      1.0775,
      0.0725,
      1.115,
      0.11,
      1.1525,
      0.1475,
      1.1875,
      0.185,
      1.225,
      0.2225,
      1.2625,
      0.26,
      1.3,
      0.2975,
      1.3375,
      0.3325,
      1.375,
      0.37,
      1.4125,
      0.4075,
      1.45,
      0.445,
      1.485,
      0.4825,
      1.5225,
      0.52,
      1.56,
      0.5575,
      1.5975,
      0.595,
      1.635,
      0.63,
      1.6725,
      0.6675,
      1.71,
      0.705,
      1.7475,
      0.7425,
      1.7825,
      0.78,
      1.82,
      0.8175,
      1.8575,
      0.855,
      1.895,
      0.89,
      1.9325,
      0.9275,
      1.97,
      0.965
    ],
    "SoftwareVersions": "syngo_MR_B17",
    "SpacingBetweenSlices": 2,
    "StationName": "FMRIFD7T",
    "TaskName": "FullFovNoAttentionTask",
    "TotalReadoutTime": 0.0190001,
    "TxRefAmp": 279,
    "dataset": "ds001555",
    "dcmmeta_affine": [
      [
        -1.9999831914901733,
        4.2201880878778297e-10,
        0.008208253420889378,
        95.76705169677734
      ],
      [
        -0.0013402394251897931,
        1.973159670829773,
        -0.32655632495880127,
        -61.09407043457031
      ],
      [
        0.008098097518086433,
        0.32655906677246094,
        1.9731431007385254,
        -53.04020690917969
      ],
      [
        0.0,
        0.0,
        0.0,
        1.0
      ]
    ],
    "dcmmeta_reorient_transform": [
      [
        0.0,
        -1.0,
        0.0,
        95.0
      ],
      [
        1.0,
        0.0,
        0.0,
        0.0
      ],
      [
        0.0,
        0.0,
        1.0,
        0.0
      ],
      [
        0.0,
        0.0,
        0.0,
        1.0
      ]
    ],
    "dcmmeta_shape": [
      96,
      96,
      54,
      164
    ],
    "dcmmeta_slice_dim": 2,
    "dcmmeta_version": 0.6,
    "global": {
      "const": {
        "AcquisitionMatrix": [
          0,
          96,
          96,
          0
        ],
        "Allergies": "No Known Allergies",
        "AngioFlag": "N",
        "BitsAllocated": 16,
        "BitsStored": 12,
        "BodyPartExamined": "HEAD",
        "Columns": 768,
        "EchoNumbers": 1,
        "EchoTime": 25.0,
        "EchoTrainLength": 1,
        "FlipAngle": 50.0,
        "HighBit": 11,
        "ImageOrientationPatient": [
          0.99999157803662,
          0.00067011969073,
          0.00404904870684,
          2.110094e-10,
          0.98657984636313,
          -0.1632795356133
        ],
        "ImagePositionPatient": [
          -767.761392775,
          -789.78807875724,
          84.985791287915
        ],
        "ImageType": [
          "ORIGINAL",
          "PRIMARY",
          "M",
          "ND",
          "ECHO_00",
          "MOSAIC"
        ],
        "ImagedNucleus": "1H",
        "ImagingFrequency": 297.205126,
        "InPlanePhaseEncodingDirection": "ROW",
        "LargestImagePixelValue": 4095,
        "MRAcquisitionType": "2D",
        "MagneticFieldStrength": 6.98,
        "Manufacturer": "SIEMENS",
        "ManufacturerModelName": "Investigational_Device_7T",
        "Modality": "MR",
        "NumberOfAverages": 1.0,
        "NumberOfPhaseEncodingSteps": 94,
        "PercentPhaseFieldOfView": 100.0,
        "PercentSampling": 100.0,
        "PerformedProcedureStepStartTime": "125606.015000",
        "PhotometricInterpretation": "MONOCHROME2",
        "PixelBandwidth": 2003.0,
        "PixelRepresentation": 0,
        "PixelSpacing": [
          2.0,
          2.0
        ],
        "PositionReferenceIndicator": "",
        "ProcedureCodeSequence": [
          {
            "CodeMeaning": "MRI Procedure Limited",
            "CodeValue": "MI01491",
            "CodingSchemeDesignator": "USA Standard",
            "ContextIdentifier": "4000111519"
          }
        ],
        "ProtocolName": "NIH_EPI_2.0iso_TR2_Run08",
        "ReferencedStudySequence": [
          {
            "ReferencedSOPClassUID": "1.2.840.10008.3.1.2.3.1",
            "ReferencedSOPInstanceUID": "1.2.840.113564.9.1.2723958737.61.2.5000077300"
          }
        ],
        "RepetitionTime": 2000.0,
        "RequestedProcedureCodeSequence": [
          {
            "CodeMeaning": "MRI Procedure Limited",
            "CodeValue": "MI01491",
            "CodingSchemeDesignator": "USA Standard",
            "ContextIdentifier": "4000111519"
          }
        ],
        "RequestingService": "MHED",
        "Rows": 768,
        "SAR": 0.07728754046703,
        "SamplesPerPixel": 1,
        "ScanningSequence": "EP",
        "SequenceName": "epfid2d1_96",
        "SequenceVariant": "SK",
        "SeriesDescription": "NIH_EPI_2.0iso_TR2_Run08",
        "SeriesNumber": 12,
        "SliceLocation": -41.959591880066,
        "SliceThickness": 2.0,
        "SmallestImagePixelValue": 0,
        "SoftwareVersions": "syngo MR B17",
        "SpacingBetweenSlices": 2.0000000184226,
        "TransmitCoilName": "32Ch_Head_7T",
        "VariableFlipAngleFlag": "N",
        "WindowCenterWidthExplanation": "Algo1",
        "dBdt": 0.0
      },
      "slices": {}
    },
    "modality": "bold",
    "run_id": 9,
    "session_id": "07",
    "subject_id": "002",
    "task_id": "FullFovNoAttentionTask",
    "time": {
      "samples": {
        "AcquisitionNumber": [
          1,
          2,
          3,
          4,
          5,
          6,
          7,
          8,
          9,
          10,
          11,
          12,
          13,
          14,
          15,
          16,
          17,
          18,
          19,
          20,
          21,
          22,
          23,
          24,
          25,
          26,
          27,
          28,
          29,
          30,
          31,
          32,
          33,
          34,
          35,
          36,
          37,
          38,
          39,
          40,
          41,
          42,
          43,
          44,
          45,
          46,
          47,
          48,
          49,
          50,
          51,
          52,
          53,
          54,
          55,
          56,
          57,
          58,
          59,
          60,
          61,
          62,
          63,
          64,
          65,
          66,
          67,
          68,
          69,
          70,
          71,
          72,
          73,
          74,
          75,
          76,
          77,
          78,
          79,
          80,
          81,
          82,
          83,
          84,
          85,
          86,
          87,
          88,
          89,
          90,
          91,
          92,
          93,
          94,
          95,
          96,
          97,
          98,
          99,
          100,
          101,
          102,
          103,
          104,
          105,
          106,
          107,
          108,
          109,
          110,
          111,
          112,
          113,
          114,
          115,
          116,
          117,
          118,
          119,
          120,
          121,
          122,
          123,
          124,
          125,
          126,
          127,
          128,
          129,
          130,
          131,
          132,
          133,
          134,
          135,
          136,
          137,
          138,
          139,
          140,
          141,
          142,
          143,
          144,
          145,
          146,
          147,
          148,
          149,
          150,
          151,
          152,
          153,
          154,
          155,
          156,
          157,
          158,
          159,
          160,
          161,
          162,
          163,
          164
        ],
        "AcquisitionTime": [
          "135641.245000",
          "135645.262500",
          "135647.270000",
          "135649.277500",
          "135651.285000",
          "135653.292500",
          "135655.302500",
          "135657.310000",
          "135659.317500",
          "135701.325000",
          "135703.332500",
          "135705.342500",
          "135707.350000",
          "135709.357500",
          "135711.365000",
          "135713.375000",
          "135715.382500",
          "135717.390000",
          "135719.397500",
          "135721.405000",
          "135723.415000",
          "135725.422500",
          "135727.430000",
          "135729.437500",
          "135731.445000",
          "135733.455000",
          "135735.462500",
          "135737.470000",
          "135739.477500",
          "135741.485000",
          "135743.495000",
          "135745.502500",
          "135747.510000",
          "135749.517500",
          "135751.527500",
          "135753.535000",
          "135755.542500",
          "135757.550000",
          "135759.557500",
          "135801.567500",
          "135803.575000",
          "135805.582500",
          "135807.590000",
          "135809.597500",
          "135811.607500",
          "135813.615000",
          "135815.622500",
          "135817.630000",
          "135819.640000",
          "135821.647500",
          "135823.655000",
          "135825.662500",
          "135827.670000",
          "135829.680000",
          "135831.687500",
          "135833.695000",
          "135835.702500",
          "135837.710000",
          "135839.720000",
          "135841.727500",
          "135843.735000",
          "135845.742500",
          "135847.752500",
          "135849.760000",
          "135851.767500",
          "135853.775000",
          "135855.782500",
          "135857.792500",
          "135859.800000",
          "135901.807500",
          "135903.815000",
          "135905.822500",
          "135907.832500",
          "135909.840000",
          "135911.847500",
          "135913.855000",
          "135915.862500",
          "135917.872500",
          "135919.880000",
          "135921.887500",
          "135923.895000",
          "135925.905000",
          "135927.912500",
          "135929.920000",
          "135931.927500",
          "135933.935000",
          "135935.945000",
          "135937.952500",
          "135939.960000",
          "135941.967500",
          "135943.975000",
          "135945.985000",
          "135947.992500",
          "135950.000000",
          "135952.007500",
          "135954.017500",
          "135956.025000",
          "135958.032500",
          "140000.040000",
          "140002.047500",
          "140004.057500",
          "140006.065000",
          "140008.072500",
          "140010.080000",
          "140012.087500",
          "140014.097500",
          "140016.105000",
          "140018.112500",
          "140020.120000",
          "140022.130000",
          "140024.137500",
          "140026.145000",
          "140028.152500",
          "140030.160000",
          "140032.170000",
          "140034.177500",
          "140036.185000",
          "140038.192500",
          "140040.200000",
          "140042.210000",
          "140044.217500",
          "140046.225000",
          "140048.232500",
          "140050.240000",
          "140052.250000",
          "140054.257500",
          "140056.265000",
          "140058.272500",
          "140100.282500",
          "140102.290000",
          "140104.297500",
          "140106.305000",
          "140108.312500",
          "140110.322500",
          "140112.330000",
          "140114.337500",
          "140116.345000",
          "140118.352500",
          "140120.362500",
          "140122.370000",
          "140124.377500",
          "140126.385000",
          "140128.395000",
          "140130.402500",
          "140132.410000",
          "140134.417500",
          "140136.425000",
          "140138.435000",
          "140140.442500",
          "140142.450000",
          "140144.457500",
          "140146.465000",
          "140148.475000",
          "140150.482500",
          "140152.490000",
          "140154.497500",
          "140156.507500",
          "140158.515000",
          "140200.522500",
          "140202.530000",
          "140204.537500",
          "140206.547500",
          "140208.555000",
          "140210.562500"
        ],
        "ContentTime": [
          "135723.640000",
          "135723.656000",
          "135723.671000",
          "135723.671000",
          "135723.671000",
          "135723.671000",
          "135723.671000",
          "135723.671000",
          "135723.687000",
          "135723.687000",
          "135723.687000",
          "135723.687000",
          "135723.687000",
          "135723.687000",
          "135723.703000",
          "135723.703000",
          "135723.703000",
          "135723.703000",
          "135723.703000",
          "135723.703000",
          "135803.640000",
          "135803.640000",
          "135803.640000",
          "135803.640000",
          "135803.640000",
          "135803.640000",
          "135803.640000",
          "135803.656000",
          "135803.656000",
          "135803.656000",
          "135803.656000",
          "135803.656000",
          "135803.671000",
          "135803.671000",
          "135803.671000",
          "135803.671000",
          "135803.671000",
          "135803.671000",
          "135803.671000",
          "135803.687000",
          "135843.640000",
          "135843.640000",
          "135843.640000",
          "135843.640000",
          "135843.656000",
          "135843.656000",
          "135843.656000",
          "135843.656000",
          "135843.656000",
          "135843.671000",
          "135843.671000",
          "135843.671000",
          "135843.671000",
          "135843.671000",
          "135843.687000",
          "135843.687000",
          "135843.687000",
          "135843.687000",
          "135843.687000",
          "135843.687000",
          "135923.640000",
          "135923.640000",
          "135923.640000",
          "135923.640000",
          "135923.640000",
          "135923.640000",
          "135923.656000",
          "135923.656000",
          "135923.656000",
          "135923.671000",
          "135923.671000",
          "135923.671000",
          "135923.687000",
          "135923.687000",
          "135923.687000",
          "135923.687000",
          "135923.703000",
          "135923.703000",
          "135923.703000",
          "135923.703000",
          "140003.640000",
          "140003.640000",
          "140003.640000",
          "140003.640000",
          "140003.640000",
          "140003.640000",
          "140003.656000",
          "140003.656000",
          "140003.656000",
          "140003.656000",
          "140003.656000",
          "140003.671000",
          "140003.671000",
          "140003.671000",
          "140003.671000",
          "140003.671000",
          "140003.671000",
          "140003.687000",
          "140003.687000",
          "140003.687000",
          "140043.640000",
          "140043.640000",
          "140043.640000",
          "140043.640000",
          "140043.640000",
          "140043.640000",
          "140043.656000",
          "140043.656000",
          "140043.656000",
          "140043.656000",
          "140043.656000",
          "140043.656000",
          "140043.671000",
          "140043.671000",
          "140043.671000",
          "140043.687000",
          "140043.687000",
          "140043.687000",
          "140043.687000",
          "140043.687000",
          "140123.640000",
          "140123.640000",
          "140123.640000",
          "140123.640000",
          "140123.640000",
          "140123.656000",
          "140123.656000",
          "140123.656000",
          "140123.656000",
          "140123.671000",
          "140123.671000",
          "140123.671000",
          "140123.671000",
          "140123.671000",
          "140123.671000",
          "140123.687000",
          "140123.687000",
          "140123.687000",
          "140123.687000",
          "140123.687000",
          "140203.640000",
          "140203.640000",
          "140203.640000",
          "140203.640000",
          "140203.640000",
          "140203.640000",
          "140203.656000",
          "140203.656000",
          "140203.656000",
          "140203.656000",
          "140203.656000",
          "140203.671000",
          "140203.671000",
          "140203.671000",
          "140203.671000",
          "140203.687000",
          "140203.687000",
          "140203.687000",
          "140203.687000",
          "140203.687000",
          "140210.640000",
          "140210.640000",
          "140210.640000",
          "140210.640000"
        ],
        "InstanceCreationTime": [
          "135723.640000",
          "135723.656000",
          "135723.671000",
          "135723.671000",
          "135723.671000",
          "135723.671000",
          "135723.671000",
          "135723.671000",
          "135723.687000",
          "135723.687000",
          "135723.687000",
          "135723.687000",
          "135723.687000",
          "135723.687000",
          "135723.703000",
          "135723.703000",
          "135723.703000",
          "135723.703000",
          "135723.703000",
          "135723.703000",
          "135803.640000",
          "135803.640000",
          "135803.640000",
          "135803.640000",
          "135803.640000",
          "135803.640000",
          "135803.640000",
          "135803.656000",
          "135803.656000",
          "135803.656000",
          "135803.656000",
          "135803.656000",
          "135803.671000",
          "135803.671000",
          "135803.671000",
          "135803.671000",
          "135803.671000",
          "135803.671000",
          "135803.671000",
          "135803.687000",
          "135843.640000",
          "135843.640000",
          "135843.640000",
          "135843.640000",
          "135843.656000",
          "135843.656000",
          "135843.656000",
          "135843.656000",
          "135843.656000",
          "135843.671000",
          "135843.671000",
          "135843.671000",
          "135843.671000",
          "135843.671000",
          "135843.687000",
          "135843.687000",
          "135843.687000",
          "135843.687000",
          "135843.687000",
          "135843.687000",
          "135923.640000",
          "135923.640000",
          "135923.640000",
          "135923.640000",
          "135923.640000",
          "135923.640000",
          "135923.656000",
          "135923.656000",
          "135923.656000",
          "135923.671000",
          "135923.671000",
          "135923.671000",
          "135923.687000",
          "135923.687000",
          "135923.687000",
          "135923.687000",
          "135923.703000",
          "135923.703000",
          "135923.703000",
          "135923.703000",
          "140003.640000",
          "140003.640000",
          "140003.640000",
          "140003.640000",
          "140003.640000",
          "140003.640000",
          "140003.656000",
          "140003.656000",
          "140003.656000",
          "140003.656000",
          "140003.656000",
          "140003.671000",
          "140003.671000",
          "140003.671000",
          "140003.671000",
          "140003.671000",
          "140003.671000",
          "140003.687000",
          "140003.687000",
          "140003.687000",
          "140043.640000",
          "140043.640000",
          "140043.640000",
          "140043.640000",
          "140043.640000",
          "140043.640000",
          "140043.656000",
          "140043.656000",
          "140043.656000",
          "140043.656000",
          "140043.656000",
          "140043.656000",
          "140043.671000",
          "140043.671000",
          "140043.671000",
          "140043.687000",
          "140043.687000",
          "140043.687000",
          "140043.687000",
          "140043.687000",
          "140123.640000",
          "140123.640000",
          "140123.640000",
          "140123.640000",
          "140123.640000",
          "140123.656000",
          "140123.656000",
          "140123.656000",
          "140123.656000",
          "140123.671000",
          "140123.671000",
          "140123.671000",
          "140123.671000",
          "140123.671000",
          "140123.671000",
          "140123.687000",
          "140123.687000",
          "140123.687000",
          "140123.687000",
          "140123.687000",
          "140203.640000",
          "140203.640000",
          "140203.640000",
          "140203.640000",
          "140203.640000",
          "140203.640000",
          "140203.656000",
          "140203.656000",
          "140203.656000",
          "140203.656000",
          "140203.656000",
          "140203.671000",
          "140203.671000",
          "140203.671000",
          "140203.671000",
          "140203.687000",
          "140203.687000",
          "140203.687000",
          "140203.687000",
          "140203.687000",
          "140210.640000",
          "140210.640000",
          "140210.640000",
          "140210.640000"
        ],
        "InstanceNumber": [
          1,
          2,
          3,
          4,
          5,
          6,
          7,
          8,
          9,
          10,
          11,
          12,
          13,
          14,
          15,
          16,
          17,
          18,
          19,
          20,
          21,
          22,
          23,
          24,
          25,
          26,
          27,
          28,
          29,
          30,
          31,
          32,
          33,
          34,
          35,
          36,
          37,
          38,
          39,
          40,
          41,
          42,
          43,
          44,
          45,
          46,
          47,
          48,
          49,
          50,
          51,
          52,
          53,
          54,
          55,
          56,
          57,
          58,
          59,
          60,
          61,
          62,
          63,
          64,
          65,
          66,
          67,
          68,
          69,
          70,
          71,
          72,
          73,
          74,
          75,
          76,
          77,
          78,
          79,
          80,
          81,
          82,
          83,
          84,
          85,
          86,
          87,
          88,
          89,
          90,
          91,
          92,
          93,
          94,
          95,
          96,
          97,
          98,
          99,
          100,
          101,
          102,
          103,
          104,
          105,
          106,
          107,
          108,
          109,
          110,
          111,
          112,
          113,
          114,
          115,
          116,
          117,
          118,
          119,
          120,
          121,
          122,
          123,
          124,
          125,
          126,
          127,
          128,
          129,
          130,
          131,
          132,
          133,
          134,
          135,
          136,
          137,
          138,
          139,
          140,
          141,
          142,
          143,
          144,
          145,
          146,
          147,
          148,
          149,
          150,
          151,
          152,
          153,
          154,
          155,
          156,
          157,
          158,
          159,
          160,
          161,
          162,
          163,
          164
        ],
        "WindowCenter": [
          1036.0,
          1036.0,
          1037.0,
          1033.0,
          1034.0,
          1034.0,
          1034.0,
          1038.0,
          1035.0,
          1033.0,
          1035.0,
          1037.0,
          1036.0,
          1037.0,
          1036.0,
          1036.0,
          1036.0,
          1036.0,
          1034.0,
          1037.0,
          1035.0,
          1035.0,
          1033.0,
          1035.0,
          1034.0,
          1036.0,
          1034.0,
          1035.0,
          1036.0,
          1035.0,
          1037.0,
          1036.0,
          1037.0,
          1039.0,
          1037.0,
          1037.0,
          1037.0,
          1037.0,
          1038.0,
          1037.0,
          1036.0,
          1036.0,
          1037.0,
          1037.0,
          1036.0,
          1036.0,
          1036.0,
          1037.0,
          1037.0,
          1037.0,
          1037.0,
          1037.0,
          1036.0,
          1036.0,
          1039.0,
          1037.0,
          1034.0,
          1034.0,
          1035.0,
          1035.0,
          1033.0,
          1035.0,
          1033.0,
          1032.0,
          1035.0,
          1036.0,
          1035.0,
          1035.0,
          1035.0,
          1035.0,
          1037.0,
          1035.0,
          1036.0,
          1035.0,
          1035.0,
          1034.0,
          1033.0,
          1036.0,
          1036.0,
          1034.0,
          1035.0,
          1034.0,
          1037.0,
          1035.0,
          1035.0,
          1035.0,
          1036.0,
          1034.0,
          1034.0,
          1034.0,
          1035.0,
          1035.0,
          1035.0,
          1035.0,
          1035.0,
          1035.0,
          1035.0,
          1035.0,
          1034.0,
          1035.0,
          1035.0,
          1036.0,
          1034.0,
          1034.0,
          1035.0,
          1037.0,
          1037.0,
          1035.0,
          1034.0,
          1036.0,
          1036.0,
          1036.0,
          1036.0,
          1036.0,
          1035.0,
          1032.0,
          1032.0,
          1034.0,
          1035.0,
          1034.0,
          1032.0,
          1035.0,
          1035.0,
          1034.0,
          1033.0,
          1036.0,
          1038.0,
          1037.0,
          1035.0,
          1032.0,
          1035.0,
          1035.0,
          1035.0,
          1036.0,
          1033.0,
          1035.0,
          1035.0,
          1034.0,
          1033.0,
          1034.0,
          1035.0,
          1035.0,
          1036.0,
          1035.0,
          1035.0,
          1033.0,
          1035.0,
          1034.0,
          1033.0,
          1033.0,
          1033.0,
          1034.0,
          1033.0,
          1034.0,
          1032.0,
          1035.0,
          1034.0,
          1033.0,
          1034.0,
          1034.0,
          1036.0,
          1035.0,
          1036.0,
          1035.0
        ],
        "WindowWidth": [
          2736.0,
          2745.0,
          2743.0,
          2725.0,
          2732.0,
          2734.0,
          2738.0,
          2751.0,
          2732.0,
          2731.0,
          2743.0,
          2744.0,
          2744.0,
          2739.0,
          2738.0,
          2742.0,
          2743.0,
          2742.0,
          2733.0,
          2745.0,
          2739.0,
          2734.0,
          2730.0,
          2738.0,
          2734.0,
          2740.0,
          2733.0,
          2730.0,
          2740.0,
          2736.0,
          2747.0,
          2733.0,
          2750.0,
          2749.0,
          2747.0,
          2737.0,
          2744.0,
          2749.0,
          2748.0,
          2747.0,
          2736.0,
          2746.0,
          2745.0,
          2740.0,
          2736.0,
          2741.0,
          2741.0,
          2743.0,
          2743.0,
          2746.0,
          2748.0,
          2742.0,
          2735.0,
          2748.0,
          2751.0,
          2746.0,
          2731.0,
          2730.0,
          2740.0,
          2734.0,
          2731.0,
          2734.0,
          2725.0,
          2725.0,
          2732.0,
          2740.0,
          2728.0,
          2731.0,
          2727.0,
          2734.0,
          2744.0,
          2732.0,
          2739.0,
          2729.0,
          2737.0,
          2731.0,
          2726.0,
          2737.0,
          2732.0,
          2728.0,
          2730.0,
          2727.0,
