{
  "aor": 0.0007028048780487805,
  "aqi": 0.004333107256097561,
  "bids_meta": {
    "AcquisitionMatrixPE": 96,
    "AcquisitionNumber": 1,
    "AcquisitionTime": "14:34:28.357500",
    "BandwidthPerPixelPhaseEncode": 52.083,
    "BaseResolution": 96,
    "BodyPartExamined": "HEAD",
    "ConversionSoftware": "dcm2niix",
    "ConversionSoftwareVersion": "v1.0.20180622 GCC6.3.0",
    "DerivedVendorReportedEchoSpacing": 0.000600004,
    "DeviceSerialNumber": "18926",
    "DwellTime": 2.6e-06,
    "EchoTime": 0.025,
    "EffectiveEchoSpacing": 0.000200001,
    "FlipAngle": 50,
    "ImageOrientationPatientDICOM": [
      0.999992,
      0.00067012,
      0.00404905,
      2.11009e-10,
      0.98658,
      -0.16328
    ],
    "ImageType": [
      "ORIGINAL",
      "PRIMARY",
      "M",
      "ND",
      "ECHO",
      "00",
      "MOSAIC"
    ],
    "InPlanePhaseEncodingDirectionDICOM": "ROW",
    "InstitutionName": "NIMH",
    "InstitutionalDepartmentName": "Department",
    "MRAcquisitionType": "2D",
    "MagneticFieldStrength": 6.98,
    "Manufacturer": "Siemens",
    "ManufacturersModelName": "Investigational_Device_7T",
    "Modality": "MR",
    "ParallelReductionFactorInPlane": 3,
    "PartialFourier": 1,
    "PatientPosition": "HFS",
    "PercentPhaseFOV": 100,
    "PhaseEncodingDirection": "i",
    "PhaseEncodingSteps": 94,
    "PhaseResolution": 1,
    "PixelBandwidth": 2003,
    "ProcedureStepDescription": "MRI_Procedure_Limited",
    "ProtocolName": "NIH_EPI_2.0iso_TR2_Run14",
    "PulseSequenceDetails": "%CustomerSeq%_inati_nih_epi",
    "ReceiveCoilName": "32Ch_Head_7T",
    "ReconMatrixPE": 96,
    "RepetitionTime": 2,
    "SAR": 0.0772875,
    "ScanningSequence": "EP",
    "SequenceName": "epfid2d1_96",
    "SequenceVariant": "SK",
    "SeriesDescription": "NIH_EPI_2.0iso_TR2_Run14",
    "SeriesNumber": 18,
    "ShimSetting": [
      -82,
      284,
      1186,
      1731,
      -62,
      609,
      209,
      -258
    ],
    "SliceThickness": 2,
    "SliceTiming": [
      1.005,
      0,
      1.0425,
      0.0375,
      1.08,
      0.075,
      1.1175,
      0.1125,
      1.1525,
      0.15,
      1.19,
      0.1875,
      1.2275,
      0.225,
      1.265,
      0.26,
      1.3025,
      0.2975,
      1.34,
      0.335,
      1.3775,
      0.3725,
      1.4125,
      0.41,
      1.45,
      0.4475,
      1.4875,
      0.485,
      1.525,
      0.5225,
      1.5625,
      0.5575,
      1.6,
      0.595,
      1.6375,
      0.6325,
      1.675,
      0.67,
      1.71,
      0.7075,
      1.7475,
      0.745,
      1.785,
      0.7825,
      1.8225,
      0.82,
      1.86,
      0.855,
      1.8975,
      0.8925,
      1.935,
      0.93,
      1.9725,
      0.9675
    ],
    "SoftwareVersions": "syngo_MR_B17",
    "SpacingBetweenSlices": 2,
    "StationName": "FMRIFD7T",
    "TaskName": "FullFovNoAttentionTask",
    "TotalReadoutTime": 0.0190001,
    "TxRefAmp": 279,
    "dataset": "ds001555",
    "dcmmeta_affine": [
      [
        -1.9999831914901733,
        4.2201880878778297e-10,
        0.008208253420889378,
        95.76705169677734
      ],
      [
        -0.0013402394251897931,
        1.973159670829773,
        -0.32655632495880127,
        -61.09407043457031
      ],
      [
        0.008098097518086433,
        0.32655906677246094,
        1.9731431007385254,
        -53.04020690917969
      ],
      [
        0.0,
        0.0,
        0.0,
        1.0
      ]
    ],
    "dcmmeta_reorient_transform": [
      [
        0.0,
        -1.0,
        0.0,
        95.0
      ],
      [
        1.0,
        0.0,
        0.0,
        0.0
      ],
      [
        0.0,
        0.0,
        1.0,
        0.0
      ],
      [
        0.0,
        0.0,
        0.0,
        1.0
      ]
    ],
    "dcmmeta_shape": [
      96,
      96,
      54,
      164
    ],
    "dcmmeta_slice_dim": 2,
    "dcmmeta_version": 0.6,
    "global": {
      "const": {
        "AcquisitionMatrix": [
          0,
          96,
          96,
          0
        ],
        "Allergies": "No Known Allergies",
        "AngioFlag": "N",
        "BitsAllocated": 16,
        "BitsStored": 12,
        "BodyPartExamined": "HEAD",
        "Columns": 768,
        "EchoNumbers": 1,
        "EchoTime": 25.0,
        "EchoTrainLength": 1,
        "FlipAngle": 50.0,
        "HighBit": 11,
        "ImageOrientationPatient": [
          0.99999157803662,
          0.00067011969073,
          0.00404904870684,
          2.110094e-10,
          0.98657984636313,
          -0.1632795356133
        ],
        "ImagePositionPatient": [
          -767.761392775,
          -789.78807875724,
          84.985791287915
        ],
        "ImageType": [
          "ORIGINAL",
          "PRIMARY",
          "M",
          "ND",
          "ECHO_00",
          "MOSAIC"
        ],
        "ImagedNucleus": "1H",
        "ImagingFrequency": 297.205218,
        "InPlanePhaseEncodingDirection": "ROW",
        "LargestImagePixelValue": 4095,
        "MRAcquisitionType": "2D",
        "MagneticFieldStrength": 6.98,
        "Manufacturer": "SIEMENS",
        "ManufacturerModelName": "Investigational_Device_7T",
        "Modality": "MR",
        "NumberOfAverages": 1.0,
        "NumberOfPhaseEncodingSteps": 94,
        "PercentPhaseFieldOfView": 100.0,
        "PercentSampling": 100.0,
        "PerformedProcedureStepStartTime": "125606.015000",
        "PhotometricInterpretation": "MONOCHROME2",
        "PixelBandwidth": 2003.0,
        "PixelRepresentation": 0,
        "PixelSpacing": [
          2.0,
          2.0
        ],
        "PositionReferenceIndicator": "",
        "ProcedureCodeSequence": [
          {
            "CodeMeaning": "MRI Procedure Limited",
            "CodeValue": "MI01491",
            "CodingSchemeDesignator": "USA Standard",
            "ContextIdentifier": "4000111519"
          }
        ],
        "ProtocolName": "NIH_EPI_2.0iso_TR2_Run14",
        "ReferencedStudySequence": [
          {
            "ReferencedSOPClassUID": "1.2.840.10008.3.1.2.3.1",
            "ReferencedSOPInstanceUID": "1.2.840.113564.9.1.2723958737.61.2.5000077300"
          }
        ],
        "RepetitionTime": 2000.0,
        "RequestedProcedureCodeSequence": [
          {
            "CodeMeaning": "MRI Procedure Limited",
            "CodeValue": "MI01491",
            "CodingSchemeDesignator": "USA Standard",
            "ContextIdentifier": "4000111519"
          }
        ],
        "RequestingService": "MHED",
        "Rows": 768,
        "SAR": 0.07728754046703,
        "SamplesPerPixel": 1,
        "ScanningSequence": "EP",
        "SequenceName": "epfid2d1_96",
        "SequenceVariant": "SK",
        "SeriesDescription": "NIH_EPI_2.0iso_TR2_Run14",
        "SeriesNumber": 18,
        "SliceLocation": -41.959591880066,
        "SliceThickness": 2.0,
        "SmallestImagePixelValue": 0,
        "SoftwareVersions": "syngo MR B17",
        "SpacingBetweenSlices": 2.0000000184226,
        "TransmitCoilName": "32Ch_Head_7T",
        "VariableFlipAngleFlag": "N",
        "WindowCenterWidthExplanation": "Algo1",
        "dBdt": 0.0
      },
      "slices": {}
    },
    "modality": "bold",
    "run_id": 15,
    "session_id": "07",
    "subject_id": "002",
    "task_id": "FullFovNoAttentionTask",
    "time": {
      "samples": {
        "AcquisitionNumber": [
          1,
          2,
          3,
          4,
          5,
          6,
          7,
          8,
          9,
          10,
          11,
          12,
          13,
          14,
          15,
          16,
          17,
          18,
          19,
          20,
          21,
          22,
          23,
          24,
          25,
          26,
          27,
          28,
          29,
          30,
          31,
          32,
          33,
          34,
          35,
          36,
          37,
          38,
          39,
          40,
          41,
          42,
          43,
          44,
          45,
          46,
          47,
          48,
          49,
          50,
          51,
          52,
          53,
          54,
          55,
          56,
          57,
          58,
          59,
          60,
          61,
          62,
          63,
          64,
          65,
          66,
          67,
          68,
          69,
          70,
          71,
          72,
          73,
          74,
          75,
          76,
          77,
          78,
          79,
          80,
          81,
          82,
          83,
          84,
          85,
          86,
          87,
          88,
          89,
          90,
          91,
          92,
          93,
          94,
          95,
          96,
          97,
          98,
          99,
          100,
          101,
          102,
          103,
          104,
          105,
          106,
          107,
          108,
          109,
          110,
          111,
          112,
          113,
          114,
          115,
          116,
          117,
          118,
          119,
          120,
          121,
          122,
          123,
          124,
          125,
          126,
          127,
          128,
          129,
          130,
          131,
          132,
          133,
          134,
          135,
          136,
          137,
          138,
          139,
          140,
          141,
          142,
          143,
          144,
          145,
          146,
          147,
          148,
          149,
          150,
          151,
          152,
          153,
          154,
          155,
          156,
          157,
          158,
          159,
          160,
          161,
          162,
          163,
          164
        ],
        "AcquisitionTime": [
          "143428.357500",
          "143432.372500",
          "143434.382500",
          "143436.390000",
          "143438.397500",
          "143440.405000",
          "143442.412500",
          "143444.422500",
          "143446.430000",
          "143448.437500",
          "143450.445000",
          "143452.452500",
          "143454.462500",
          "143456.470000",
          "143458.477500",
          "143500.485000",
          "143502.495000",
          "143504.502500",
          "143506.510000",
          "143508.517500",
          "143510.525000",
          "143512.535000",
          "143514.542500",
          "143516.550000",
          "143518.557500",
          "143520.565000",
          "143522.575000",
          "143524.582500",
          "143526.590000",
          "143528.597500",
          "143530.607500",
          "143532.615000",
          "143534.622500",
          "143536.630000",
          "143538.637500",
          "143540.647500",
          "143542.655000",
          "143544.662500",
          "143546.670000",
          "143548.677500",
          "143550.687500",
          "143552.695000",
          "143554.702500",
          "143556.710000",
          "143558.717500",
          "143600.727500",
          "143602.735000",
          "143604.742500",
          "143606.750000",
          "143608.760000",
          "143610.767500",
          "143612.775000",
          "143614.782500",
          "143616.790000",
          "143618.800000",
          "143620.807500",
          "143622.815000",
          "143624.822500",
          "143626.830000",
          "143628.840000",
          "143630.847500",
          "143632.855000",
          "143634.862500",
          "143636.872500",
          "143638.880000",
          "143640.887500",
          "143642.895000",
          "143644.902500",
          "143646.912500",
          "143648.920000",
          "143650.927500",
          "143652.935000",
          "143654.942500",
          "143656.952500",
          "143658.960000",
          "143700.967500",
          "143702.975000",
          "143704.985000",
          "143706.992500",
          "143709.000000",
          "143711.007500",
          "143713.015000",
          "143715.025000",
          "143717.032500",
          "143719.040000",
          "143721.047500",
          "143723.055000",
          "143725.065000",
          "143727.072500",
          "143729.080000",
          "143731.087500",
          "143733.095000",
          "143735.105000",
          "143737.112500",
          "143739.120000",
          "143741.127500",
          "143743.137500",
          "143745.145000",
          "143747.152500",
          "143749.160000",
          "143751.167500",
          "143753.177500",
          "143755.185000",
          "143757.192500",
          "143759.200000",
          "143801.207500",
          "143803.217500",
          "143805.225000",
          "143807.232500",
          "143809.240000",
          "143811.250000",
          "143813.257500",
          "143815.265000",
          "143817.272500",
          "143819.280000",
          "143821.290000",
          "143823.297500",
          "143825.305000",
          "143827.312500",
          "143829.320000",
          "143831.330000",
          "143833.337500",
          "143835.345000",
          "143837.352500",
          "143839.362500",
          "143841.370000",
          "143843.377500",
          "143845.385000",
          "143847.392500",
          "143849.402500",
          "143851.410000",
          "143853.417500",
          "143855.425000",
          "143857.432500",
          "143859.442500",
          "143901.450000",
          "143903.457500",
          "143905.465000",
          "143907.472500",
          "143909.482500",
          "143911.490000",
          "143913.497500",
          "143915.505000",
          "143917.515000",
          "143919.522500",
          "143921.530000",
          "143923.537500",
          "143925.545000",
          "143927.555000",
          "143929.562500",
          "143931.570000",
          "143933.577500",
          "143935.585000",
          "143937.595000",
          "143939.602500",
          "143941.610000",
          "143943.617500",
          "143945.627500",
          "143947.635000",
          "143949.642500",
          "143951.650000",
          "143953.657500",
          "143955.667500",
          "143957.675000"
        ],
        "ContentTime": [
          "143523.640000",
          "143523.640000",
          "143523.640000",
          "143523.640000",
          "143523.640000",
          "143523.656000",
          "143523.656000",
          "143523.656000",
          "143523.671000",
          "143523.671000",
          "143523.671000",
          "143523.671000",
          "143523.687000",
          "143523.687000",
          "143523.687000",
          "143523.687000",
          "143523.687000",
          "143523.687000",
          "143523.687000",
          "143523.703000",
          "143523.703000",
          "143523.703000",
          "143523.703000",
          "143523.703000",
          "143523.703000",
          "143523.718000",
          "143603.625000",
          "143603.625000",
          "143603.625000",
          "143603.640000",
          "143603.640000",
          "143603.640000",
          "143603.640000",
          "143603.640000",
          "143603.640000",
          "143603.640000",
          "143603.656000",
          "143603.656000",
          "143603.656000",
          "143603.656000",
          "143603.671000",
          "143603.671000",
          "143603.671000",
          "143603.671000",
          "143603.671000",
          "143603.687000",
          "143643.625000",
          "143643.625000",
          "143643.625000",
          "143643.625000",
          "143643.640000",
          "143643.640000",
          "143643.640000",
          "143643.640000",
          "143643.640000",
          "143643.640000",
          "143643.640000",
          "143643.656000",
          "143643.656000",
          "143643.656000",
          "143643.656000",
          "143643.671000",
          "143643.671000",
          "143643.671000",
          "143643.671000",
          "143643.671000",
          "143723.625000",
          "143723.625000",
          "143723.625000",
          "143723.625000",
          "143723.640000",
          "143723.640000",
          "143723.640000",
          "143723.640000",
          "143723.640000",
          "143723.640000",
          "143723.640000",
          "143723.656000",
          "143723.656000",
          "143723.656000",
          "143723.656000",
          "143723.656000",
          "143723.656000",
          "143723.656000",
          "143723.671000",
          "143723.671000",
          "143803.625000",
          "143803.625000",
          "143803.625000",
          "143803.625000",
          "143803.640000",
          "143803.640000",
          "143803.640000",
          "143803.640000",
          "143803.640000",
          "143803.640000",
          "143803.640000",
          "143803.656000",
          "143803.656000",
          "143803.656000",
          "143803.656000",
          "143803.656000",
          "143803.671000",
          "143803.671000",
          "143803.671000",
          "143803.671000",
          "143843.625000",
          "143843.625000",
          "143843.625000",
          "143843.640000",
          "143843.640000",
          "143843.640000",
          "143843.640000",
          "143843.656000",
          "143843.656000",
          "143843.656000",
          "143843.656000",
          "143843.656000",
          "143843.656000",
          "143843.656000",
          "143843.671000",
          "143843.671000",
          "143843.671000",
          "143843.671000",
          "143843.671000",
          "143843.687000",
          "143923.625000",
          "143923.625000",
          "143923.625000",
          "143923.625000",
          "143923.640000",
          "143923.640000",
          "143923.640000",
          "143923.640000",
          "143923.640000",
          "143923.640000",
          "143923.640000",
          "143923.656000",
          "143923.656000",
          "143923.656000",
          "143923.656000",
          "143923.656000",
          "143923.671000",
          "143923.671000",
          "143923.671000",
          "143923.671000",
          "143958.046000",
          "143958.046000",
          "143958.046000",
          "143958.062000",
          "143958.062000",
          "143958.062000",
          "143958.062000",
          "143958.062000",
          "143958.062000",
          "143958.062000",
          "143958.078000",
          "143958.078000",
          "143958.093000",
          "143958.093000",
          "143958.093000",
          "143958.093000",
          "143958.093000",
          "143958.093000"
        ],
        "InstanceCreationTime": [
          "143523.640000",
          "143523.640000",
          "143523.640000",
          "143523.640000",
          "143523.640000",
          "143523.656000",
          "143523.656000",
          "143523.656000",
          "143523.671000",
          "143523.671000",
          "143523.671000",
          "143523.671000",
          "143523.687000",
          "143523.687000",
          "143523.687000",
          "143523.687000",
          "143523.687000",
          "143523.687000",
          "143523.687000",
          "143523.703000",
          "143523.703000",
          "143523.703000",
          "143523.703000",
          "143523.703000",
          "143523.703000",
          "143523.718000",
          "143603.625000",
          "143603.625000",
          "143603.625000",
          "143603.640000",
          "143603.640000",
          "143603.640000",
          "143603.640000",
          "143603.640000",
          "143603.640000",
          "143603.640000",
          "143603.656000",
          "143603.656000",
          "143603.656000",
          "143603.656000",
          "143603.671000",
          "143603.671000",
          "143603.671000",
          "143603.671000",
          "143603.671000",
          "143603.687000",
          "143643.625000",
          "143643.625000",
          "143643.625000",
          "143643.625000",
          "143643.640000",
          "143643.640000",
          "143643.640000",
          "143643.640000",
          "143643.640000",
          "143643.640000",
          "143643.640000",
          "143643.656000",
          "143643.656000",
          "143643.656000",
          "143643.656000",
          "143643.671000",
          "143643.671000",
          "143643.671000",
          "143643.671000",
          "143643.671000",
          "143723.625000",
          "143723.625000",
          "143723.625000",
          "143723.625000",
          "143723.640000",
          "143723.640000",
          "143723.640000",
          "143723.640000",
          "143723.640000",
          "143723.640000",
          "143723.640000",
          "143723.656000",
          "143723.656000",
          "143723.656000",
          "143723.656000",
          "143723.656000",
          "143723.656000",
          "143723.656000",
          "143723.671000",
          "143723.671000",
          "143803.625000",
          "143803.625000",
          "143803.625000",
          "143803.625000",
          "143803.640000",
          "143803.640000",
          "143803.640000",
          "143803.640000",
          "143803.640000",
          "143803.640000",
          "143803.640000",
          "143803.656000",
          "143803.656000",
          "143803.656000",
          "143803.656000",
          "143803.656000",
          "143803.671000",
          "143803.671000",
          "143803.671000",
          "143803.671000",
          "143843.625000",
          "143843.625000",
          "143843.625000",
          "143843.640000",
          "143843.640000",
          "143843.640000",
          "143843.640000",
          "143843.656000",
          "143843.656000",
          "143843.656000",
          "143843.656000",
          "143843.656000",
          "143843.656000",
          "143843.656000",
          "143843.671000",
          "143843.671000",
          "143843.671000",
          "143843.671000",
          "143843.671000",
          "143843.687000",
          "143923.625000",
          "143923.625000",
          "143923.625000",
          "143923.625000",
          "143923.640000",
          "143923.640000",
          "143923.640000",
          "143923.640000",
          "143923.640000",
          "143923.640000",
          "143923.640000",
          "143923.656000",
          "143923.656000",
          "143923.656000",
          "143923.656000",
          "143923.656000",
          "143923.671000",
          "143923.671000",
          "143923.671000",
          "143923.671000",
          "143958.046000",
          "143958.046000",
          "143958.046000",
          "143958.062000",
          "143958.062000",
          "143958.062000",
          "143958.062000",
          "143958.062000",
          "143958.062000",
          "143958.062000",
          "143958.078000",
          "143958.078000",
          "143958.093000",
          "143958.093000",
          "143958.093000",
          "143958.093000",
          "143958.093000",
          "143958.093000"
        ],
        "InstanceNumber": [
          1,
          2,
          3,
          4,
          5,
          6,
          7,
          8,
          9,
          10,
          11,
          12,
          13,
          14,
          15,
          16,
          17,
          18,
          19,
          20,
          21,
          22,
          23,
          24,
          25,
          26,
          27,
          28,
          29,
          30,
          31,
          32,
          33,
          34,
          35,
          36,
          37,
          38,
          39,
          40,
          41,
          42,
          43,
          44,
          45,
          46,
          47,
          48,
          49,
          50,
          51,
          52,
          53,
          54,
          55,
          56,
          57,
          58,
          59,
          60,
          61,
          62,
          63,
          64,
          65,
          66,
          67,
          68,
          69,
          70,
          71,
          72,
          73,
          74,
          75,
          76,
          77,
          78,
          79,
          80,
          81,
          82,
          83,
          84,
          85,
          86,
          87,
          88,
          89,
          90,
          91,
          92,
          93,
          94,
          95,
          96,
          97,
          98,
          99,
          100,
          101,
          102,
          103,
          104,
          105,
          106,
          107,
          108,
          109,
          110,
          111,
          112,
          113,
          114,
          115,
          116,
          117,
          118,
          119,
          120,
          121,
          122,
          123,
          124,
          125,
          126,
          127,
          128,
          129,
          130,
          131,
          132,
          133,
          134,
          135,
          136,
          137,
          138,
          139,
          140,
          141,
          142,
          143,
          144,
          145,
          146,
          147,
          148,
          149,
          150,
          151,
          152,
          153,
          154,
          155,
          156,
          157,
          158,
          159,
          160,
          161,
          162,
          163,
          164
        ],
        "WindowCenter": [
          1033.0,
          1035.0,
          1032.0,
          1030.0,
          1032.0,
          1033.0,
          1032.0,
          1032.0,
          1031.0,
          1031.0,
          1032.0,
          1031.0,
          1032.0,
          1034.0,
          1033.0,
          1032.0,
          1033.0,
          1033.0,
          1032.0,
          1033.0,
          1032.0,
          1034.0,
          1033.0,
          1032.0,
          1032.0,
          1031.0,
          1031.0,
          1033.0,
          1032.0,
          1032.0,
          1032.0,
          1033.0,
          1034.0,
          1031.0,
          1032.0,
          1034.0,
          1035.0,
          1034.0,
          1033.0,
          1032.0,
          1033.0,
          1033.0,
          1032.0,
          1031.0,
          1035.0,
          1034.0,
          1033.0,
          1034.0,
          1034.0,
          1033.0,
          1033.0,
          1032.0,
          1033.0,
          1032.0,
          1031.0,
          1032.0,
          1032.0,
          1031.0,
          1033.0,
          1033.0,
          1033.0,
          1031.0,
          1032.0,
          1033.0,
          1033.0,
          1031.0,
          1031.0,
          1034.0,
          1034.0,
          1033.0,
          1033.0,
          1035.0,
          1034.0,
          1034.0,
          1035.0,
          1035.0,
          1035.0,
          1036.0,
          1035.0,
          1034.0,
          1035.0,
          1033.0,
          1034.0,
          1032.0,
          1032.0,
          1034.0,
          1036.0,
          1035.0,
          1033.0,
          1035.0,
          1035.0,
          1034.0,
          1034.0,
          1034.0,
          1034.0,
          1035.0,
          1037.0,
          1036.0,
          1031.0,
          1033.0,
          1033.0,
          1034.0,
          1033.0,
          1033.0,
          1035.0,
          1035.0,
          1035.0,
          1031.0,
          1032.0,
          1036.0,
          1034.0,
          1035.0,
          1034.0,
          1033.0,
          1035.0,
          1036.0,
          1038.0,
          1035.0,
          1031.0,
          1033.0,
          1034.0,
          1035.0,
          1034.0,
          1034.0,
          1036.0,
          1036.0,
          1036.0,
          1036.0,
          1035.0,
          1035.0,
          1034.0,
          1036.0,
          1034.0,
          1035.0,
          1034.0,
          1036.0,
          1037.0,
          1037.0,
          1035.0,
          1034.0,
          1036.0,
          1037.0,
          1035.0,
          1034.0,
          1034.0,
          1033.0,
          1034.0,
          1034.0,
          1034.0,
          1035.0,
          1035.0,
          1035.0,
          1035.0,
          1035.0,
          1034.0,
          1035.0,
          1037.0,
          1036.0,
          1035.0,
          1036.0,
          1036.0,
          1036.0,
          1036.0,
          1034.0
        ],
        "WindowWidth": [
          2730.0,
          2735.0,
          2722.0,
          2715.0,
          2726.0,
          2733.0,
          2721.0,
          2727.0,
          2718.0,
          2718.0,
          2725.0,
          2714.0,
          2728.0,
          2732.0,
          2729.0,
          2725.0,
          2734.0,
          2733.0,
          2723.0,
          2728.0,
          2723.0,
          2735.0,
          2727.0,
          2720.0,
          2724.0,
          2721.0,
          2726.0,
          2729.0,
          2723.0,
          2729.0,
          2721.0,
          2730.0,
          2730.0,
          2722.0,
          2726.0,
          2739.0,
          2738.0,
          2732.0,
          2729.0,
          2731.0,
          2733.0,
          2730.0,
          2718.0,
          2730.0,
          2739.0,
          2732.0,
          2723.0,
          2737.0,
          2731.0,
          2727.0,
          2727.0,
          2720.0,
          2731.0,
          2724.0,
          2717.0,
          2727.0,
          2721.0,
          2723.0,
          2728.0,
          2722.0,
          2727.0,
          2720.0,
          2727.0,
          2732.0,
          2728.0,
          2716.0,
          2722.0,
          2734.0,
          2728.0,
          2729.0,
          2727.0,
          2734.0,
          2726.0,
          2732.0,
          2735.0,
          2736.0,
          2732.0,
          2735.0,
          2737.0,
          2734.0,
          2737.0,
          2723.0,
