{
  "aor": 0.016071951219512198,
  "aqi": 0.006937958963414634,
  "bids_meta": {
    "AcquisitionMatrixPE": 96,
    "AcquisitionNumber": 1,
    "AcquisitionTime": "18:37:0.375000",
    "BandwidthPerPixelPhaseEncode": 52.083,
    "BaseResolution": 96,
    "BodyPartExamined": "HEAD",
    "ConversionSoftware": "dcm2niix",
    "ConversionSoftwareVersion": "v1.0.20180622 GCC6.3.0",
    "DerivedVendorReportedEchoSpacing": 0.000600004,
    "DeviceSerialNumber": "18926",
    "DwellTime": 2.6e-06,
    "EchoTime": 0.025,
    "EffectiveEchoSpacing": 0.000200001,
    "FlipAngle": 50,
    "ImageOrientationPatientDICOM": [
      0.999992,
      0.00067012,
      0.00404905,
      2.11009e-10,
      0.98658,
      -0.16328
    ],
    "ImageType": [
      "ORIGINAL",
      "PRIMARY",
      "M",
      "ND",
      "ECHO",
      "00",
      "MOSAIC"
    ],
    "InPlanePhaseEncodingDirectionDICOM": "ROW",
    "InstitutionName": "NIMH",
    "InstitutionalDepartmentName": "Department",
    "MRAcquisitionType": "2D",
    "MagneticFieldStrength": 6.98,
    "Manufacturer": "Siemens",
    "ManufacturersModelName": "Investigational_Device_7T",
    "Modality": "MR",
    "ParallelReductionFactorInPlane": 3,
    "PartialFourier": 1,
    "PatientPosition": "HFS",
    "PercentPhaseFOV": 100,
    "PhaseEncodingDirection": "i",
    "PhaseEncodingSteps": 94,
    "PhaseResolution": 1,
    "PixelBandwidth": 2003,
    "ProcedureStepDescription": "MRI_Procedure_Limited",
    "ProtocolName": "NIH_EPI_2.0iso_TR2_Run11",
    "PulseSequenceDetails": "%CustomerSeq%_inati_nih_epi",
    "ReceiveCoilName": "32Ch_Head_7T",
    "ReconMatrixPE": 96,
    "RepetitionTime": 2,
    "SAR": 0.0825282,
    "ScanningSequence": "EP",
    "SequenceName": "epfid2d1_96",
    "SequenceVariant": "SK",
    "SeriesDescription": "NIH_EPI_2.0iso_TR2_Run11",
    "SeriesNumber": 16,
    "ShimSetting": [
      -50,
      218,
      853,
      1213,
      -183,
      571,
      69,
      -438
    ],
    "SliceThickness": 2,
    "SliceTiming": [
      1.005,
      0,
      1.0425,
      0.0375,
      1.08,
      0.075,
      1.115,
      0.1125,
      1.1525,
      0.15,
      1.19,
      0.1875,
      1.2275,
      0.225,
      1.265,
      0.26,
      1.3025,
      0.2975,
      1.34,
      0.335,
      1.3775,
      0.3725,
      1.4125,
      0.41,
      1.45,
      0.4475,
      1.4875,
      0.485,
      1.525,
      0.52,
      1.5625,
      0.5575,
      1.6,
      0.595,
      1.6375,
      0.6325,
      1.6725,
      0.67,
      1.71,
      0.7075,
      1.7475,
      0.745,
      1.785,
      0.7825,
      1.8225,
      0.8175,
      1.86,
      0.855,
      1.8975,
      0.8925,
      1.935,
      0.93,
      1.97,
      0.9675
    ],
    "SoftwareVersions": "syngo_MR_B17",
    "SpacingBetweenSlices": 2,
    "StationName": "FMRIFD7T",
    "TaskName": "HalfFovNoTask",
    "TotalReadoutTime": 0.0190001,
    "TxRefAmp": 331,
    "dataset": "ds001555",
    "dcmmeta_affine": [
      [
        -1.9999831914901733,
        4.2201880878778297e-10,
        0.008208253420889378,
        95.76705169677734
      ],
      [
        -0.0013402394251897931,
        1.973159670829773,
        -0.32655632495880127,
        -58.3952751159668
      ],
      [
        0.008098097518086433,
        0.32655906677246094,
        1.9731431007385254,
        -41.57032775878906
      ],
      [
        0.0,
        0.0,
        0.0,
        1.0
      ]
    ],
    "dcmmeta_reorient_transform": [
      [
        0.0,
        -1.0,
        0.0,
        95.0
      ],
      [
        1.0,
        0.0,
        0.0,
        0.0
      ],
      [
        0.0,
        0.0,
        1.0,
        0.0
      ],
      [
        0.0,
        0.0,
        0.0,
        1.0
      ]
    ],
    "dcmmeta_shape": [
      96,
      96,
      54,
      164
    ],
    "dcmmeta_slice_dim": 2,
    "dcmmeta_version": 0.6,
    "global": {
      "const": {
        "AcquisitionMatrix": [
          0,
          96,
          96,
          0
        ],
        "Allergies": "No Known Allergies",
        "AngioFlag": "N",
        "BitsAllocated": 16,
        "BitsStored": 12,
        "BodyPartExamined": "HEAD",
        "Columns": 768,
        "EchoNumbers": 1,
        "EchoTime": 25.0,
        "EchoTrainLength": 1,
        "FlipAngle": 50.0,
        "HighBit": 11,
        "ImageOrientationPatient": [
          0.99999157803662,
          0.00067011969073,
          0.00404904870684,
          2.110094e-10,
          0.98657984636313,
          -0.1632795356133
        ],
        "ImagePositionPatient": [
          -767.761392775,
          -792.48687407585,
          96.455670438306
        ],
        "ImageType": [
          "ORIGINAL",
          "PRIMARY",
          "M",
          "ND",
          "ECHO_00",
          "MOSAIC"
        ],
        "ImagedNucleus": "1H",
        "ImagingFrequency": 297.205239,
        "InPlanePhaseEncodingDirection": "ROW",
        "LargestImagePixelValue": 4095,
        "MRAcquisitionType": "2D",
        "MagneticFieldStrength": 6.98,
        "Manufacturer": "SIEMENS",
        "ManufacturerModelName": "Investigational_Device_7T",
        "Modality": "MR",
        "NumberOfAverages": 1.0,
        "NumberOfPhaseEncodingSteps": 94,
        "PercentPhaseFieldOfView": 100.0,
        "PercentSampling": 100.0,
        "PerformedProcedureStepStartTime": "170131.504000",
        "PhotometricInterpretation": "MONOCHROME2",
        "PixelBandwidth": 2003.0,
        "PixelRepresentation": 0,
        "PixelSpacing": [
          2.0,
          2.0
        ],
        "PositionReferenceIndicator": "",
        "ProcedureCodeSequence": [
          {
            "CodeMeaning": "MRI Procedure Limited",
            "CodeValue": "MI01491",
            "CodingSchemeDesignator": "USA Standard",
            "ContextIdentifier": "4000100956"
          }
        ],
        "ProtocolName": "NIH_EPI_2.0iso_TR2_Run11",
        "ReferencedStudySequence": [
          {
            "ReferencedSOPClassUID": "1.2.840.10008.3.1.2.3.1",
            "ReferencedSOPInstanceUID": "1.2.840.113564.9.1.2723958737.61.2.5000066720"
          }
        ],
        "RepetitionTime": 2000.0,
        "RequestedProcedureCodeSequence": [
          {
            "CodeMeaning": "MRI Procedure Limited",
            "CodeValue": "MI01491",
            "CodingSchemeDesignator": "USA Standard",
            "ContextIdentifier": "4000100956"
          }
        ],
        "RequestingService": "MHMI",
        "Rows": 768,
        "SAR": 0.08252816967743,
        "SamplesPerPixel": 1,
        "ScanningSequence": "EP",
        "SequenceName": "epfid2d1_96",
        "SequenceVariant": "SK",
        "SeriesDescription": "NIH_EPI_2.0iso_TR2_Run11",
        "SeriesNumber": 16,
        "SliceLocation": -31.084389907735,
        "SliceThickness": 2.0,
        "SmallestImagePixelValue": 0,
        "SoftwareVersions": "syngo MR B17",
        "SpacingBetweenSlices": 2.0000000184226,
        "TransmitCoilName": "32Ch_Head_7T",
        "VariableFlipAngleFlag": "N",
        "WindowCenterWidthExplanation": "Algo1",
        "dBdt": 0.0
      },
      "slices": {}
    },
    "modality": "bold",
    "run_id": 13,
    "session_id": "03",
    "subject_id": "001",
    "task_id": "HalfFovNoTask",
    "time": {
      "samples": {
        "AcquisitionNumber": [
          1,
          2,
          3,
          4,
          5,
          6,
          7,
          8,
          9,
          10,
          11,
          12,
          13,
          14,
          15,
          16,
          17,
          18,
          19,
          20,
          21,
          22,
          23,
          24,
          25,
          26,
          27,
          28,
          29,
          30,
          31,
          32,
          33,
          34,
          35,
          36,
          37,
          38,
          39,
          40,
          41,
          42,
          43,
          44,
          45,
          46,
          47,
          48,
          49,
          50,
          51,
          52,
          53,
          54,
          55,
          56,
          57,
          58,
          59,
          60,
          61,
          62,
          63,
          64,
          65,
          66,
          67,
          68,
          69,
          70,
          71,
          72,
          73,
          74,
          75,
          76,
          77,
          78,
          79,
          80,
          81,
          82,
          83,
          84,
          85,
          86,
          87,
          88,
          89,
          90,
          91,
          92,
          93,
          94,
          95,
          96,
          97,
          98,
          99,
          100,
          101,
          102,
          103,
          104,
          105,
          106,
          107,
          108,
          109,
          110,
          111,
          112,
          113,
          114,
          115,
          116,
          117,
          118,
          119,
          120,
          121,
          122,
          123,
          124,
          125,
          126,
          127,
          128,
          129,
          130,
          131,
          132,
          133,
          134,
          135,
          136,
          137,
          138,
          139,
          140,
          141,
          142,
          143,
          144,
          145,
          146,
          147,
          148,
          149,
          150,
          151,
          152,
          153,
          154,
          155,
          156,
          157,
          158,
          159,
          160,
          161,
          162,
          163,
          164
        ],
        "AcquisitionTime": [
          "183700.375000",
          "183704.390000",
          "183706.397500",
          "183708.407500",
          "183710.415000",
          "183712.422500",
          "183714.430000",
          "183716.440000",
          "183718.447500",
          "183720.455000",
          "183722.462500",
          "183724.470000",
          "183726.480000",
          "183728.487500",
          "183730.495000",
          "183732.502500",
          "183734.510000",
          "183736.520000",
          "183738.527500",
          "183740.535000",
          "183742.542500",
          "183744.550000",
          "183746.560000",
          "183748.567500",
          "183750.575000",
          "183752.582500",
          "183754.592500",
          "183756.600000",
          "183758.607500",
          "183800.615000",
          "183802.622500",
          "183804.632500",
          "183806.640000",
          "183808.647500",
          "183810.655000",
          "183812.662500",
          "183814.672500",
          "183816.680000",
          "183818.687500",
          "183820.695000",
          "183822.705000",
          "183824.712500",
          "183826.720000",
          "183828.727500",
          "183830.735000",
          "183832.745000",
          "183834.752500",
          "183836.760000",
          "183838.767500",
          "183840.775000",
          "183842.785000",
          "183844.792500",
          "183846.800000",
          "183848.807500",
          "183850.817500",
          "183852.825000",
          "183854.832500",
          "183856.840000",
          "183858.847500",
          "183900.857500",
          "183902.865000",
          "183904.872500",
          "183906.880000",
          "183908.887500",
          "183910.897500",
          "183912.905000",
          "183914.912500",
          "183916.920000",
          "183918.927500",
          "183920.937500",
          "183922.945000",
          "183924.952500",
          "183926.960000",
          "183928.970000",
          "183930.977500",
          "183932.985000",
          "183934.992500",
          "183937.000000",
          "183939.010000",
          "183941.017500",
          "183943.025000",
          "183945.032500",
          "183947.040000",
          "183949.050000",
          "183951.057500",
          "183953.065000",
          "183955.072500",
          "183957.082500",
          "183959.090000",
          "184001.097500",
          "184003.105000",
          "184005.112500",
          "184007.122500",
          "184009.130000",
          "184011.137500",
          "184013.145000",
          "184015.152500",
          "184017.162500",
          "184019.170000",
          "184021.177500",
          "184023.185000",
          "184025.195000",
          "184027.202500",
          "184029.210000",
          "184031.217500",
          "184033.225000",
          "184035.235000",
          "184037.242500",
          "184039.250000",
          "184041.257500",
          "184043.265000",
          "184045.275000",
          "184047.282500",
          "184049.290000",
          "184051.297500",
          "184053.305000",
          "184055.315000",
          "184057.322500",
          "184059.330000",
          "184101.337500",
          "184103.347500",
          "184105.355000",
          "184107.362500",
          "184109.370000",
          "184111.377500",
          "184113.387500",
          "184115.395000",
          "184117.402500",
          "184119.410000",
          "184121.417500",
          "184123.427500",
          "184125.435000",
          "184127.442500",
          "184129.450000",
          "184131.460000",
          "184133.467500",
          "184135.475000",
          "184137.482500",
          "184139.490000",
          "184141.500000",
          "184143.507500",
          "184145.515000",
          "184147.522500",
          "184149.530000",
          "184151.540000",
          "184153.547500",
          "184155.555000",
          "184157.562500",
          "184159.572500",
          "184201.580000",
          "184203.587500",
          "184205.595000",
          "184207.602500",
          "184209.612500",
          "184211.620000",
          "184213.627500",
          "184215.635000",
          "184217.642500",
          "184219.652500",
          "184221.660000",
          "184223.667500",
          "184225.675000",
          "184227.682500",
          "184229.692500"
        ],
        "ContentTime": [
          "183748.925000",
          "183748.925000",
          "183748.925000",
          "183748.941000",
          "183748.941000",
          "183748.941000",
          "183748.957000",
          "183748.957000",
          "183748.957000",
          "183748.957000",
          "183748.957000",
          "183748.957000",
          "183748.957000",
          "183748.972000",
          "183748.972000",
          "183748.972000",
          "183748.972000",
          "183748.972000",
          "183748.988000",
          "183748.988000",
          "183748.988000",
          "183748.988000",
          "183748.988000",
          "183828.910000",
          "183828.910000",
          "183828.925000",
          "183828.925000",
          "183828.925000",
          "183828.925000",
          "183828.925000",
          "183828.941000",
          "183828.941000",
          "183828.941000",
          "183828.941000",
          "183828.941000",
          "183828.941000",
          "183828.957000",
          "183828.957000",
          "183828.957000",
          "183828.957000",
          "183828.957000",
          "183828.957000",
          "183828.957000",
          "183908.910000",
          "183908.910000",
          "183908.925000",
          "183908.925000",
          "183908.925000",
          "183908.925000",
          "183908.925000",
          "183908.941000",
          "183908.941000",
          "183908.941000",
          "183908.941000",
          "183908.957000",
          "183908.957000",
          "183908.957000",
          "183908.957000",
          "183908.957000",
          "183908.957000",
          "183908.972000",
          "183908.972000",
          "183908.972000",
          "183948.910000",
          "183948.910000",
          "183948.925000",
          "183948.925000",
          "183948.925000",
          "183948.925000",
          "183948.925000",
          "183948.925000",
          "183948.941000",
          "183948.941000",
          "183948.941000",
          "183948.941000",
          "183948.941000",
          "183948.957000",
          "183948.957000",
          "183948.957000",
          "183948.957000",
          "183948.957000",
          "183948.957000",
          "183948.957000",
          "184028.910000",
          "184028.910000",
          "184028.925000",
          "184028.925000",
          "184028.925000",
          "184028.925000",
          "184028.925000",
          "184028.925000",
          "184028.941000",
          "184028.941000",
          "184028.941000",
          "184028.941000",
          "184028.941000",
          "184028.941000",
          "184028.957000",
          "184028.957000",
          "184028.957000",
          "184028.972000",
          "184028.972000",
          "184028.972000",
          "184108.910000",
          "184108.910000",
          "184108.925000",
          "184108.925000",
          "184108.925000",
          "184108.925000",
          "184108.925000",
          "184108.925000",
          "184108.941000",
          "184108.941000",
          "184108.941000",
          "184108.957000",
          "184108.957000",
          "184108.957000",
          "184108.957000",
          "184108.957000",
          "184108.957000",
          "184108.957000",
          "184108.972000",
          "184108.972000",
          "184148.910000",
          "184148.910000",
          "184148.925000",
          "184148.925000",
          "184148.925000",
          "184148.925000",
          "184148.925000",
          "184148.925000",
          "184148.941000",
          "184148.941000",
          "184148.941000",
          "184148.941000",
          "184148.941000",
          "184148.941000",
          "184148.941000",
          "184148.972000",
          "184148.972000",
          "184148.972000",
          "184148.972000",
          "184148.972000",
          "184228.910000",
          "184228.910000",
          "184228.925000",
          "184228.925000",
          "184228.941000",
          "184228.941000",
          "184228.941000",
          "184228.941000",
          "184228.957000",
          "184228.957000",
          "184228.957000",
          "184228.988000",
          "184228.988000",
          "184229.004000",
          "184229.004000",
          "184229.004000",
          "184229.004000",
          "184229.019000",
          "184229.019000",
          "184229.019000",
          "184230.097000"
        ],
        "InstanceCreationTime": [
          "183748.925000",
          "183748.925000",
          "183748.925000",
          "183748.941000",
          "183748.941000",
          "183748.941000",
          "183748.957000",
          "183748.957000",
          "183748.957000",
          "183748.957000",
          "183748.957000",
          "183748.957000",
          "183748.957000",
          "183748.972000",
          "183748.972000",
          "183748.972000",
          "183748.972000",
          "183748.972000",
          "183748.988000",
          "183748.988000",
          "183748.988000",
          "183748.988000",
          "183748.988000",
          "183828.910000",
          "183828.910000",
          "183828.925000",
          "183828.925000",
          "183828.925000",
          "183828.925000",
          "183828.925000",
          "183828.941000",
          "183828.941000",
          "183828.941000",
          "183828.941000",
          "183828.941000",
          "183828.941000",
          "183828.957000",
          "183828.957000",
          "183828.957000",
          "183828.957000",
          "183828.957000",
          "183828.957000",
          "183828.957000",
          "183908.910000",
          "183908.910000",
          "183908.925000",
          "183908.925000",
          "183908.925000",
          "183908.925000",
          "183908.925000",
          "183908.941000",
          "183908.941000",
          "183908.941000",
          "183908.941000",
          "183908.957000",
          "183908.957000",
          "183908.957000",
          "183908.957000",
          "183908.957000",
          "183908.957000",
          "183908.972000",
          "183908.972000",
          "183908.972000",
          "183948.910000",
          "183948.910000",
          "183948.925000",
          "183948.925000",
          "183948.925000",
          "183948.925000",
          "183948.925000",
          "183948.925000",
          "183948.941000",
          "183948.941000",
          "183948.941000",
          "183948.941000",
          "183948.941000",
          "183948.957000",
          "183948.957000",
          "183948.957000",
          "183948.957000",
          "183948.957000",
          "183948.957000",
          "183948.957000",
          "184028.910000",
          "184028.910000",
          "184028.925000",
          "184028.925000",
          "184028.925000",
          "184028.925000",
          "184028.925000",
          "184028.925000",
          "184028.941000",
          "184028.941000",
          "184028.941000",
          "184028.941000",
          "184028.941000",
          "184028.941000",
          "184028.957000",
          "184028.957000",
          "184028.957000",
          "184028.972000",
          "184028.972000",
          "184028.972000",
          "184108.910000",
          "184108.910000",
          "184108.925000",
          "184108.925000",
          "184108.925000",
          "184108.925000",
          "184108.925000",
          "184108.925000",
          "184108.941000",
          "184108.941000",
          "184108.941000",
          "184108.957000",
          "184108.957000",
          "184108.957000",
          "184108.957000",
          "184108.957000",
          "184108.957000",
          "184108.957000",
          "184108.972000",
          "184108.972000",
          "184148.910000",
          "184148.910000",
          "184148.925000",
          "184148.925000",
          "184148.925000",
          "184148.925000",
          "184148.925000",
          "184148.925000",
          "184148.941000",
          "184148.941000",
          "184148.941000",
          "184148.941000",
          "184148.941000",
          "184148.941000",
          "184148.941000",
          "184148.972000",
          "184148.972000",
          "184148.972000",
          "184148.972000",
          "184148.972000",
          "184228.910000",
          "184228.910000",
          "184228.925000",
          "184228.925000",
          "184228.941000",
          "184228.941000",
          "184228.941000",
          "184228.941000",
          "184228.957000",
          "184228.957000",
          "184228.957000",
          "184228.988000",
          "184228.988000",
          "184229.004000",
          "184229.004000",
          "184229.004000",
          "184229.004000",
          "184229.019000",
          "184229.019000",
          "184229.019000",
          "184230.097000"
        ],
        "InstanceNumber": [
          1,
          2,
          3,
          4,
          5,
          6,
          7,
          8,
          9,
          10,
          11,
          12,
          13,
          14,
          15,
          16,
          17,
          18,
          19,
          20,
          21,
          22,
          23,
          24,
          25,
          26,
          27,
          28,
          29,
          30,
          31,
          32,
          33,
          34,
          35,
          36,
          37,
          38,
          39,
          40,
          41,
          42,
          43,
          44,
          45,
          46,
          47,
          48,
          49,
          50,
          51,
          52,
          53,
          54,
          55,
          56,
          57,
          58,
          59,
          60,
          61,
          62,
          63,
          64,
          65,
          66,
          67,
          68,
          69,
          70,
          71,
          72,
          73,
          74,
          75,
          76,
          77,
          78,
          79,
          80,
          81,
          82,
          83,
          84,
          85,
          86,
          87,
          88,
          89,
          90,
          91,
          92,
          93,
          94,
          95,
          96,
          97,
          98,
          99,
          100,
          101,
          102,
          103,
          104,
          105,
          106,
          107,
          108,
          109,
          110,
          111,
          112,
          113,
          114,
          115,
          116,
          117,
          118,
          119,
          120,
          121,
          122,
          123,
          124,
          125,
          126,
          127,
          128,
          129,
          130,
          131,
          132,
          133,
          134,
          135,
          136,
          137,
          138,
          139,
          140,
          141,
          142,
          143,
          144,
          145,
          146,
          147,
          148,
          149,
          150,
          151,
          152,
          153,
          154,
          155,
          156,
          157,
          158,
          159,
          160,
          161,
          162,
          163,
          164
        ],
        "WindowCenter": [
          1233.0,
          1232.0,
          1232.0,
          1234.0,
          1233.0,
          1232.0,
          1230.0,
          1229.0,
          1228.0,
          1228.0,
          1228.0,
          1227.0,
          1227.0,
          1229.0,
          1229.0,
          1230.0,
          1230.0,
          1231.0,
          1231.0,
          1231.0,
          1231.0,
          1230.0,
          1231.0,
          1231.0,
          1232.0,
          1232.0,
          1233.0,
          1232.0,
          1231.0,
          1231.0,
          1230.0,
          1230.0,
          1229.0,
          1228.0,
          1227.0,
          1229.0,
          1230.0,
          1230.0,
          1230.0,
          1230.0,
          1229.0,
          1229.0,
          1230.0,
          1231.0,
          1232.0,
          1233.0,
          1230.0,
          1228.0,
          1228.0,
          1230.0,
          1229.0,
          1229.0,
          1228.0,
          1230.0,
          1233.0,
          1234.0,
          1231.0,
          1229.0,
          1230.0,
          1233.0,
          1234.0,
          1233.0,
          1234.0,
          1234.0,
          1234.0,
          1234.0,
          1231.0,
          1229.0,
          1228.0,
          1227.0,
          1227.0,
          1226.0,
          1229.0,
          1231.0,
          1230.0,
          1229.0,
          1229.0,
          1230.0,
          1231.0,
          1233.0,
          1235.0,
          1234.0,
          1232.0,
          1232.0,
          1229.0,
          1228.0,
          1228.0,
          1225.0,
          1225.0,
          1226.0,
          1228.0,
          1232.0,
          1232.0,
          1230.0,
          1230.0,
          1231.0,
          1233.0,
          1233.0,
          1231.0,
          1231.0,
          1232.0,
          1231.0,
          1233.0,
          1233.0,
          1231.0,
          1231.0,
          1232.0,
          1232.0,
          1232.0,
          1231.0,
          1229.0,
          1227.0,
          1227.0,
          1228.0,
          1230.0,
          1231.0,
          1230.0,
          1230.0,
          1231.0,
          1232.0,
          1232.0,
          1233.0,
          1232.0,
          1232.0,
          1231.0,
          1230.0,
          1230.0,
          1229.0,
          1230.0,
          1232.0,
          1230.0,
          1229.0,
          1230.0,
          1230.0,
          1231.0,
          1231.0,
          1229.0,
          1227.0,
          1230.0,
          1232.0,
          1228.0,
          1228.0,
          1220.0,
          1218.0,
          1213.0,
          1211.0,
          1215.0,
          1220.0,
          1227.0,
          1233.0,
          1234.0,
          1238.0,
          1238.0,
          1234.0,
          1232.0,
          1232.0,
          1229.0,
          1228.0,
          1226.0,
          1228.0,
          1229.0,
          1231.0,
          1234.0,
          1235.0
        ],
        "WindowWidth": [
          2918.0,
          2917.0,
          2921.0,
          2922.0,
          2920.0,
          2917.0,
          2916.0,
          2913.0,
          2911.0,
          2909.0,
          2906.0,
          2904.0,
          2908.0,
          2910.0,
          2911.0,
          2911.0,
          2913.0,
          2913.0,
          2914.0,
          2914.0,
          2916.0,
          2915.0,
          2915.0,
          2917.0,
          2918.0,
          2921.0,
          2921.0,
          2919.0,
          2917.0,
          2916.0,
          2915.0,
          2915.0,
          2912.0,
          2909.0,
          2910.0,
          2911.0,
          2911.0,
          2914.0,
          2915.0,
          2915.0,
          2909.0,
          2909.0,
          2911.0,
          2916.0,
          2920.0,
          2917.0,
          2913.0,
          2908.0,
          2912.0,
          2915.0,
          2914.0,
          2910.0,
          2909.0,
          2913.0,
          2922.0,
          2920.0,
          2913.0,
          2911.0,
          2913.0,
          2920.0,
          2921.0,
          2921.0,
          2924.0,
          2923.0,
          2921.0,
          2920.0,
          2913.0,
          2909.0,
          2906.0,
          2904.0,
          2902.0,
          2904.0,
          2909.0,
          2913.0,
          2910.0,
          2907.0,
          2910.0,
          2914.0,
          2920.0,
          2923.0,
          2927.0,
          2922.0,
          2919.0,
