{
  "aor": 0.00283109756097561,
  "aqi": 0.004146784573170731,
  "bids_meta": {
    "AcquisitionMatrixPE": 96,
    "AcquisitionNumber": 1,
    "AcquisitionTime": "18:29:43.605000",
    "BandwidthPerPixelPhaseEncode": 52.083,
    "BaseResolution": 96,
    "BodyPartExamined": "HEAD",
    "ConversionSoftware": "dcm2niix",
    "ConversionSoftwareVersion": "v1.0.20180622 GCC6.3.0",
    "DerivedVendorReportedEchoSpacing": 0.000600004,
    "DeviceSerialNumber": "18926",
    "DwellTime": 2.6e-06,
    "EchoTime": 0.025,
    "EffectiveEchoSpacing": 0.000200001,
    "FlipAngle": 50,
    "ImageOrientationPatientDICOM": [
      0.999992,
      0.00067012,
      0.00404905,
      2.11009e-10,
      0.98658,
      -0.16328
    ],
    "ImageType": [
      "ORIGINAL",
      "PRIMARY",
      "M",
      "ND",
      "ECHO",
      "00",
      "MOSAIC"
    ],
    "InPlanePhaseEncodingDirectionDICOM": "ROW",
    "InstitutionName": "NIMH",
    "InstitutionalDepartmentName": "Department",
    "MRAcquisitionType": "2D",
    "MagneticFieldStrength": 6.98,
    "Manufacturer": "Siemens",
    "ManufacturersModelName": "Investigational_Device_7T",
    "Modality": "MR",
    "ParallelReductionFactorInPlane": 3,
    "PartialFourier": 1,
    "PatientPosition": "HFS",
    "PercentPhaseFOV": 100,
    "PhaseEncodingDirection": "i",
    "PhaseEncodingSteps": 94,
    "PhaseResolution": 1,
    "PixelBandwidth": 2003,
    "ProcedureStepDescription": "MRI_Procedure_Limited",
    "ProtocolName": "NIH_EPI_2.0iso_TR2_Run10",
    "PulseSequenceDetails": "%CustomerSeq%_inati_nih_epi",
    "ReceiveCoilName": "32Ch_Head_7T",
    "ReconMatrixPE": 96,
    "RepetitionTime": 2,
    "SAR": 0.0825282,
    "ScanningSequence": "EP",
    "SequenceName": "epfid2d1_96",
    "SequenceVariant": "SK",
    "SeriesDescription": "NIH_EPI_2.0iso_TR2_Run10",
    "SeriesNumber": 15,
    "ShimSetting": [
      -50,
      218,
      853,
      1213,
      -183,
      571,
      69,
      -438
    ],
    "SliceThickness": 2,
    "SliceTiming": [
      1.005,
      0,
      1.04,
      0.0375,
      1.0775,
      0.075,
      1.115,
      0.1125,
      1.1525,
      0.1475,
      1.19,
      0.185,
      1.2275,
      0.2225,
      1.265,
      0.26,
      1.3,
      0.2975,
      1.3375,
      0.335,
      1.375,
      0.3725,
      1.4125,
      0.41,
      1.45,
      0.445,
      1.4875,
      0.4825,
      1.525,
      0.52,
      1.5625,
      0.5575,
      1.5975,
      0.595,
      1.635,
      0.6325,
      1.6725,
      0.67,
      1.71,
      0.7075,
      1.7475,
      0.7425,
      1.785,
      0.78,
      1.8225,
      0.8175,
      1.86,
      0.855,
      1.895,
      0.8925,
      1.9325,
      0.93,
      1.97,
      0.9675
    ],
    "SoftwareVersions": "syngo_MR_B17",
    "SpacingBetweenSlices": 2,
    "StationName": "FMRIFD7T",
    "TaskName": "HalfFovNoTask",
    "TotalReadoutTime": 0.0190001,
    "TxRefAmp": 331,
    "dataset": "ds001555",
    "dcmmeta_affine": [
      [
        -1.9999831914901733,
        4.2201880878778297e-10,
        0.008208253420889378,
        95.76705169677734
      ],
      [
        -0.0013402394251897931,
        1.973159670829773,
        -0.32655632495880127,
        -58.3952751159668
      ],
      [
        0.008098097518086433,
        0.32655906677246094,
        1.9731431007385254,
        -41.57032775878906
      ],
      [
        0.0,
        0.0,
        0.0,
        1.0
      ]
    ],
    "dcmmeta_reorient_transform": [
      [
        0.0,
        -1.0,
        0.0,
        95.0
      ],
      [
        1.0,
        0.0,
        0.0,
        0.0
      ],
      [
        0.0,
        0.0,
        1.0,
        0.0
      ],
      [
        0.0,
        0.0,
        0.0,
        1.0
      ]
    ],
    "dcmmeta_shape": [
      96,
      96,
      54,
      164
    ],
    "dcmmeta_slice_dim": 2,
    "dcmmeta_version": 0.6,
    "global": {
      "const": {
        "AcquisitionMatrix": [
          0,
          96,
          96,
          0
        ],
        "Allergies": "No Known Allergies",
        "AngioFlag": "N",
        "BitsAllocated": 16,
        "BitsStored": 12,
        "BodyPartExamined": "HEAD",
        "Columns": 768,
        "EchoNumbers": 1,
        "EchoTime": 25.0,
        "EchoTrainLength": 1,
        "FlipAngle": 50.0,
        "HighBit": 11,
        "ImageOrientationPatient": [
          0.99999157803662,
          0.00067011969073,
          0.00404904870684,
          2.110094e-10,
          0.98657984636313,
          -0.1632795356133
        ],
        "ImagePositionPatient": [
          -767.761392775,
          -792.48687407585,
          96.455670438306
        ],
        "ImageType": [
          "ORIGINAL",
          "PRIMARY",
          "M",
          "ND",
          "ECHO_00",
          "MOSAIC"
        ],
        "ImagedNucleus": "1H",
        "ImagingFrequency": 297.205229,
        "InPlanePhaseEncodingDirection": "ROW",
        "LargestImagePixelValue": 4095,
        "MRAcquisitionType": "2D",
        "MagneticFieldStrength": 6.98,
        "Manufacturer": "SIEMENS",
        "ManufacturerModelName": "Investigational_Device_7T",
        "Modality": "MR",
        "NumberOfAverages": 1.0,
        "NumberOfPhaseEncodingSteps": 94,
        "PercentPhaseFieldOfView": 100.0,
        "PercentSampling": 100.0,
        "PerformedProcedureStepStartTime": "170131.504000",
        "PhotometricInterpretation": "MONOCHROME2",
        "PixelBandwidth": 2003.0,
        "PixelRepresentation": 0,
        "PixelSpacing": [
          2.0,
          2.0
        ],
        "PositionReferenceIndicator": "",
        "ProcedureCodeSequence": [
          {
            "CodeMeaning": "MRI Procedure Limited",
            "CodeValue": "MI01491",
            "CodingSchemeDesignator": "USA Standard",
            "ContextIdentifier": "4000100956"
          }
        ],
        "ProtocolName": "NIH_EPI_2.0iso_TR2_Run10",
        "ReferencedStudySequence": [
          {
            "ReferencedSOPClassUID": "1.2.840.10008.3.1.2.3.1",
            "ReferencedSOPInstanceUID": "1.2.840.113564.9.1.2723958737.61.2.5000066720"
          }
        ],
        "RepetitionTime": 2000.0,
        "RequestedProcedureCodeSequence": [
          {
            "CodeMeaning": "MRI Procedure Limited",
            "CodeValue": "MI01491",
            "CodingSchemeDesignator": "USA Standard",
            "ContextIdentifier": "4000100956"
          }
        ],
        "RequestingService": "MHMI",
        "Rows": 768,
        "SAR": 0.08252816967743,
        "SamplesPerPixel": 1,
        "ScanningSequence": "EP",
        "SequenceName": "epfid2d1_96",
        "SequenceVariant": "SK",
        "SeriesDescription": "NIH_EPI_2.0iso_TR2_Run10",
        "SeriesNumber": 15,
        "SliceLocation": -31.084389907735,
        "SliceThickness": 2.0,
        "SmallestImagePixelValue": 0,
        "SoftwareVersions": "syngo MR B17",
        "SpacingBetweenSlices": 2.0000000184226,
        "TransmitCoilName": "32Ch_Head_7T",
        "VariableFlipAngleFlag": "N",
        "WindowCenterWidthExplanation": "Algo1",
        "dBdt": 0.0
      },
      "slices": {}
    },
    "modality": "bold",
    "run_id": 12,
    "session_id": "03",
    "subject_id": "001",
    "task_id": "HalfFovNoTask",
    "time": {
      "samples": {
        "AcquisitionNumber": [
          1,
          2,
          3,
          4,
          5,
          6,
          7,
          8,
          9,
          10,
          11,
          12,
          13,
          14,
          15,
          16,
          17,
          18,
          19,
          20,
          21,
          22,
          23,
          24,
          25,
          26,
          27,
          28,
          29,
          30,
          31,
          32,
          33,
          34,
          35,
          36,
          37,
          38,
          39,
          40,
          41,
          42,
          43,
          44,
          45,
          46,
          47,
          48,
          49,
          50,
          51,
          52,
          53,
          54,
          55,
          56,
          57,
          58,
          59,
          60,
          61,
          62,
          63,
          64,
          65,
          66,
          67,
          68,
          69,
          70,
          71,
          72,
          73,
          74,
          75,
          76,
          77,
          78,
          79,
          80,
          81,
          82,
          83,
          84,
          85,
          86,
          87,
          88,
          89,
          90,
          91,
          92,
          93,
          94,
          95,
          96,
          97,
          98,
          99,
          100,
          101,
          102,
          103,
          104,
          105,
          106,
          107,
          108,
          109,
          110,
          111,
          112,
          113,
          114,
          115,
          116,
          117,
          118,
          119,
          120,
          121,
          122,
          123,
          124,
          125,
          126,
          127,
          128,
          129,
          130,
          131,
          132,
          133,
          134,
          135,
          136,
          137,
          138,
          139,
          140,
          141,
          142,
          143,
          144,
          145,
          146,
          147,
          148,
          149,
          150,
          151,
          152,
          153,
          154,
          155,
          156,
          157,
          158,
          159,
          160,
          161,
          162,
          163,
          164
        ],
        "AcquisitionTime": [
          "182943.605000",
          "182947.620000",
          "182949.627500",
          "182951.635000",
          "182953.645000",
          "182955.652500",
          "182957.660000",
          "182959.667500",
          "183001.675000",
          "183003.685000",
          "183005.692500",
          "183007.700000",
          "183009.707500",
          "183011.717500",
          "183013.725000",
          "183015.732500",
          "183017.740000",
          "183019.747500",
          "183021.757500",
          "183023.765000",
          "183025.772500",
          "183027.780000",
          "183029.787500",
          "183031.797500",
          "183033.805000",
          "183035.812500",
          "183037.820000",
          "183039.827500",
          "183041.837500",
          "183043.845000",
          "183045.852500",
          "183047.860000",
          "183049.870000",
          "183051.877500",
          "183053.885000",
          "183055.892500",
          "183057.900000",
          "183059.910000",
          "183101.917500",
          "183103.925000",
          "183105.932500",
          "183107.940000",
          "183109.950000",
          "183111.957500",
          "183113.965000",
          "183115.972500",
          "183117.982500",
          "183119.990000",
          "183121.997500",
          "183124.005000",
          "183126.012500",
          "183128.022500",
          "183130.030000",
          "183132.037500",
          "183134.045000",
          "183136.052500",
          "183138.062500",
          "183140.070000",
          "183142.077500",
          "183144.085000",
          "183146.095000",
          "183148.102500",
          "183150.110000",
          "183152.117500",
          "183154.125000",
          "183156.135000",
          "183158.142500",
          "183200.150000",
          "183202.157500",
          "183204.165000",
          "183206.175000",
          "183208.182500",
          "183210.190000",
          "183212.197500",
          "183214.205000",
          "183216.215000",
          "183218.222500",
          "183220.230000",
          "183222.237500",
          "183224.247500",
          "183226.255000",
          "183228.262500",
          "183230.270000",
          "183232.277500",
          "183234.287500",
          "183236.295000",
          "183238.302500",
          "183240.310000",
          "183242.317500",
          "183244.327500",
          "183246.335000",
          "183248.342500",
          "183250.350000",
          "183252.360000",
          "183254.367500",
          "183256.375000",
          "183258.382500",
          "183300.390000",
          "183302.400000",
          "183304.407500",
          "183306.415000",
          "183308.422500",
          "183310.430000",
          "183312.440000",
          "183314.447500",
          "183316.455000",
          "183318.462500",
          "183320.472500",
          "183322.480000",
          "183324.487500",
          "183326.495000",
          "183328.502500",
          "183330.512500",
          "183332.520000",
          "183334.527500",
          "183336.535000",
          "183338.542500",
          "183340.552500",
          "183342.560000",
          "183344.567500",
          "183346.575000",
          "183348.582500",
          "183350.592500",
          "183352.600000",
          "183354.607500",
          "183356.615000",
          "183358.625000",
          "183400.632500",
          "183402.640000",
          "183404.647500",
          "183406.655000",
          "183408.665000",
          "183410.672500",
          "183412.680000",
          "183414.687500",
          "183416.695000",
          "183418.705000",
          "183420.712500",
          "183422.720000",
          "183424.727500",
          "183426.737500",
          "183428.745000",
          "183430.752500",
          "183432.760000",
          "183434.767500",
          "183436.777500",
          "183438.785000",
          "183440.792500",
          "183442.800000",
          "183444.807500",
          "183446.817500",
          "183448.825000",
          "183450.832500",
          "183452.840000",
          "183454.850000",
          "183456.857500",
          "183458.865000",
          "183500.872500",
          "183502.880000",
          "183504.890000",
          "183506.897500",
          "183508.905000",
          "183510.912500",
          "183512.920000"
        ],
        "ContentTime": [
          "183040.285000",
          "183040.285000",
          "183040.285000",
          "183040.300000",
          "183040.300000",
          "183040.300000",
          "183040.300000",
          "183040.300000",
          "183040.300000",
          "183040.316000",
          "183040.316000",
          "183040.316000",
          "183040.316000",
          "183040.316000",
          "183040.332000",
          "183040.332000",
          "183040.332000",
          "183040.332000",
          "183040.332000",
          "183040.332000",
          "183040.332000",
          "183040.347000",
          "183040.347000",
          "183040.347000",
          "183040.347000",
          "183040.347000",
          "183040.347000",
          "183120.269000",
          "183120.285000",
          "183120.285000",
          "183120.285000",
          "183120.285000",
          "183120.285000",
          "183120.285000",
          "183120.285000",
          "183120.300000",
          "183120.300000",
          "183120.300000",
          "183120.300000",
          "183120.300000",
          "183120.300000",
          "183120.316000",
          "183120.316000",
          "183120.316000",
          "183120.316000",
          "183120.316000",
          "183120.316000",
          "183200.269000",
          "183200.269000",
          "183200.285000",
          "183200.285000",
          "183200.285000",
          "183200.285000",
          "183200.285000",
          "183200.285000",
          "183200.300000",
          "183200.300000",
          "183200.300000",
          "183200.300000",
          "183200.300000",
          "183200.316000",
          "183200.316000",
          "183200.316000",
          "183200.316000",
          "183200.316000",
          "183200.316000",
          "183200.332000",
          "183240.269000",
          "183240.269000",
          "183240.285000",
          "183240.285000",
          "183240.285000",
          "183240.285000",
          "183240.300000",
          "183240.300000",
          "183240.300000",
          "183240.300000",
          "183240.300000",
          "183240.300000",
          "183240.300000",
          "183240.316000",
          "183240.316000",
          "183240.316000",
          "183240.316000",
          "183240.316000",
          "183240.316000",
          "183240.316000",
          "183320.269000",
          "183320.269000",
          "183320.285000",
          "183320.285000",
          "183320.285000",
          "183320.285000",
          "183320.285000",
          "183320.300000",
          "183320.300000",
          "183320.300000",
          "183320.300000",
          "183320.300000",
          "183320.300000",
          "183320.300000",
          "183320.316000",
          "183320.316000",
          "183320.316000",
          "183320.316000",
          "183320.316000",
          "183320.332000",
          "183400.269000",
          "183400.269000",
          "183400.285000",
          "183400.285000",
          "183400.285000",
          "183400.285000",
          "183400.285000",
          "183400.300000",
          "183400.300000",
          "183400.300000",
          "183400.300000",
          "183400.300000",
          "183400.316000",
          "183400.316000",
          "183400.316000",
          "183400.316000",
          "183400.316000",
          "183400.316000",
          "183400.332000",
          "183400.332000",
          "183440.269000",
          "183440.269000",
          "183440.285000",
          "183440.285000",
          "183440.285000",
          "183440.285000",
          "183440.285000",
          "183440.285000",
          "183440.300000",
          "183440.300000",
          "183440.300000",
          "183440.300000",
          "183440.300000",
          "183440.300000",
          "183440.316000",
          "183440.316000",
          "183440.316000",
          "183440.316000",
          "183440.316000",
          "183440.316000",
          "183513.425000",
          "183513.425000",
          "183513.425000",
          "183513.425000",
          "183513.441000",
          "183513.441000",
          "183513.441000",
          "183513.441000",
          "183513.441000",
          "183513.441000",
          "183513.457000",
          "183513.457000",
          "183513.457000",
          "183513.457000",
          "183513.457000",
          "183513.472000",
          "183513.472000"
        ],
        "InstanceCreationTime": [
          "183040.285000",
          "183040.285000",
          "183040.285000",
          "183040.300000",
          "183040.300000",
          "183040.300000",
          "183040.300000",
          "183040.300000",
          "183040.300000",
          "183040.316000",
          "183040.316000",
          "183040.316000",
          "183040.316000",
          "183040.316000",
          "183040.332000",
          "183040.332000",
          "183040.332000",
          "183040.332000",
          "183040.332000",
          "183040.332000",
          "183040.332000",
          "183040.347000",
          "183040.347000",
          "183040.347000",
          "183040.347000",
          "183040.347000",
          "183040.347000",
          "183120.269000",
          "183120.285000",
          "183120.285000",
          "183120.285000",
          "183120.285000",
          "183120.285000",
          "183120.285000",
          "183120.285000",
          "183120.300000",
          "183120.300000",
          "183120.300000",
          "183120.300000",
          "183120.300000",
          "183120.300000",
          "183120.316000",
          "183120.316000",
          "183120.316000",
          "183120.316000",
          "183120.316000",
          "183120.316000",
          "183200.269000",
          "183200.269000",
          "183200.285000",
          "183200.285000",
          "183200.285000",
          "183200.285000",
          "183200.285000",
          "183200.285000",
          "183200.300000",
          "183200.300000",
          "183200.300000",
          "183200.300000",
          "183200.300000",
          "183200.316000",
          "183200.316000",
          "183200.316000",
          "183200.316000",
          "183200.316000",
          "183200.316000",
          "183200.332000",
          "183240.269000",
          "183240.269000",
          "183240.285000",
          "183240.285000",
          "183240.285000",
          "183240.285000",
          "183240.300000",
          "183240.300000",
          "183240.300000",
          "183240.300000",
          "183240.300000",
          "183240.300000",
          "183240.300000",
          "183240.316000",
          "183240.316000",
          "183240.316000",
          "183240.316000",
          "183240.316000",
          "183240.316000",
          "183240.316000",
          "183320.269000",
          "183320.269000",
          "183320.285000",
          "183320.285000",
          "183320.285000",
          "183320.285000",
          "183320.285000",
          "183320.300000",
          "183320.300000",
          "183320.300000",
          "183320.300000",
          "183320.300000",
          "183320.300000",
          "183320.300000",
          "183320.316000",
          "183320.316000",
          "183320.316000",
          "183320.316000",
          "183320.316000",
          "183320.332000",
          "183400.269000",
          "183400.269000",
          "183400.285000",
          "183400.285000",
          "183400.285000",
          "183400.285000",
          "183400.285000",
          "183400.300000",
          "183400.300000",
          "183400.300000",
          "183400.300000",
          "183400.300000",
          "183400.316000",
          "183400.316000",
          "183400.316000",
          "183400.316000",
          "183400.316000",
          "183400.316000",
          "183400.332000",
          "183400.332000",
          "183440.269000",
          "183440.269000",
          "183440.285000",
          "183440.285000",
          "183440.285000",
          "183440.285000",
          "183440.285000",
          "183440.285000",
          "183440.300000",
          "183440.300000",
          "183440.300000",
          "183440.300000",
          "183440.300000",
          "183440.300000",
          "183440.316000",
          "183440.316000",
          "183440.316000",
          "183440.316000",
          "183440.316000",
          "183440.316000",
          "183513.425000",
          "183513.425000",
          "183513.425000",
          "183513.425000",
          "183513.441000",
          "183513.441000",
          "183513.441000",
          "183513.441000",
          "183513.441000",
          "183513.441000",
          "183513.457000",
          "183513.457000",
          "183513.457000",
          "183513.457000",
          "183513.457000",
          "183513.472000",
          "183513.472000"
        ],
        "InstanceNumber": [
          1,
          2,
          3,
          4,
          5,
          6,
          7,
          8,
          9,
          10,
          11,
          12,
          13,
          14,
          15,
          16,
          17,
          18,
          19,
          20,
          21,
          22,
          23,
          24,
          25,
          26,
          27,
          28,
          29,
          30,
          31,
          32,
          33,
          34,
          35,
          36,
          37,
          38,
          39,
          40,
          41,
          42,
          43,
          44,
          45,
          46,
          47,
          48,
          49,
          50,
          51,
          52,
          53,
          54,
          55,
          56,
          57,
          58,
          59,
          60,
          61,
          62,
          63,
          64,
          65,
          66,
          67,
          68,
          69,
          70,
          71,
          72,
          73,
          74,
          75,
          76,
          77,
          78,
          79,
          80,
          81,
          82,
          83,
          84,
          85,
          86,
          87,
          88,
          89,
          90,
          91,
          92,
          93,
          94,
          95,
          96,
          97,
          98,
          99,
          100,
          101,
          102,
          103,
          104,
          105,
          106,
          107,
          108,
          109,
          110,
          111,
          112,
          113,
          114,
          115,
          116,
          117,
          118,
          119,
          120,
          121,
          122,
          123,
          124,
          125,
          126,
          127,
          128,
          129,
          130,
          131,
          132,
          133,
          134,
          135,
          136,
          137,
          138,
          139,
          140,
          141,
          142,
          143,
          144,
          145,
          146,
          147,
          148,
          149,
          150,
          151,
          152,
          153,
          154,
          155,
          156,
          157,
          158,
          159,
          160,
          161,
          162,
          163,
          164
        ],
        "WindowCenter": [
          1231.0,
          1232.0,
          1233.0,
          1236.0,
          1235.0,
          1233.0,
          1232.0,
          1231.0,
          1231.0,
          1230.0,
          1230.0,
          1230.0,
          1230.0,
          1230.0,
          1230.0,
          1228.0,
          1228.0,
          1228.0,
          1229.0,
          1229.0,
          1229.0,
          1229.0,
          1228.0,
          1229.0,
          1229.0,
          1229.0,
          1231.0,
          1231.0,
          1230.0,
          1230.0,
          1233.0,
          1234.0,
          1232.0,
          1228.0,
          1226.0,
          1227.0,
          1229.0,
          1229.0,
          1227.0,
          1227.0,
          1227.0,
          1230.0,
          1232.0,
          1233.0,
          1233.0,
          1232.0,
          1232.0,
          1235.0,
          1237.0,
          1236.0,
          1235.0,
          1233.0,
          1232.0,
          1231.0,
          1231.0,
          1230.0,
          1228.0,
          1229.0,
          1230.0,
          1228.0,
          1228.0,
          1229.0,
          1229.0,
          1231.0,
          1233.0,
          1232.0,
          1233.0,
          1234.0,
          1233.0,
          1233.0,
          1232.0,
          1230.0,
          1230.0,
          1229.0,
          1228.0,
          1227.0,
          1227.0,
          1229.0,
          1229.0,
          1231.0,
          1231.0,
          1229.0,
          1229.0,
          1229.0,
          1230.0,
          1231.0,
          1230.0,
          1229.0,
          1230.0,
          1232.0,
          1231.0,
          1231.0,
          1232.0,
          1232.0,
          1232.0,
          1232.0,
          1233.0,
          1233.0,
          1233.0,
          1233.0,
          1233.0,
          1233.0,
          1233.0,
          1233.0,
          1232.0,
          1229.0,
          1228.0,
          1227.0,
          1226.0,
          1227.0,
          1229.0,
          1229.0,
          1229.0,
          1228.0,
          1228.0,
          1230.0,
          1230.0,
          1230.0,
          1231.0,
          1233.0,
          1234.0,
          1233.0,
          1232.0,
          1227.0,
          1226.0,
          1227.0,
          1224.0,
          1218.0,
          1215.0,
          1214.0,
          1217.0,
          1220.0,
          1223.0,
          1225.0,
          1228.0,
          1230.0,
          1235.0,
          1237.0,
          1238.0,
          1235.0,
          1232.0,
          1229.0,
          1229.0,
          1230.0,
          1231.0,
          1234.0,
          1235.0,
          1234.0,
          1234.0,
          1232.0,
          1233.0,
          1232.0,
          1232.0,
          1231.0,
          1231.0,
          1231.0,
          1233.0,
          1233.0,
          1232.0,
          1232.0,
          1233.0,
          1233.0,
          1234.0,
          1234.0
        ],
        "WindowWidth": [
          2913.0,
          2918.0,
          2921.0,
          2924.0,
          2919.0,
          2913.0,
          2912.0,
          2913.0,
          2912.0,
          2910.0,
          2910.0,
          2911.0,
          2912.0,
          2909.0,
          2908.0,
          2906.0,
          2906.0,
          2906.0,
          2908.0,
          2907.0,
          2907.0,
          2906.0,
          2906.0,
          2908.0,
          2909.0,
          2909.0,
          2913.0,
          2913.0,
          2912.0,
          2915.0,
          2922.0,
          2924.0,
          2915.0,
          2905.0,
          2901.0,
          2904.0,
          2907.0,
          2906.0,
          2902.0,
          2902.0,
          2906.0,
          2912.0,
          2919.0,
          2918.0,
          2913.0,
          2912.0,
          2917.0,
          2924.0,
          2928.0,
          2926.0,
          2921.0,
          2918.0,
          2916.0,
          2911.0,
          2910.0,
          2909.0,
          2906.0,
          2908.0,
          2907.0,
          2906.0,
          2905.0,
          2906.0,
          2910.0,
          2914.0,
          2918.0,
          2919.0,
          2920.0,
          2922.0,
          2921.0,
          2919.0,
          2915.0,
          2913.0,
          2910.0,
          2908.0,
          2905.0,
          2905.0,
          2905.0,
          2908.0,
          2909.0,
          2910.0,
          2909.0,
          2906.0,
          2907.0,
