{
  "aor": 0.0036670731707317077,
  "aqi": 0.005128920975609756,
  "bids_meta": {
    "AcquisitionMatrixPE": 96,
    "AcquisitionNumber": 1,
    "AcquisitionTime": "17:30:6.207500",
    "BandwidthPerPixelPhaseEncode": 52.083,
    "BaseResolution": 96,
    "BodyPartExamined": "HEAD",
    "ConversionSoftware": "dcm2niix",
    "ConversionSoftwareVersion": "v1.0.20180622 GCC6.3.0",
    "DerivedVendorReportedEchoSpacing": 0.000600004,
    "DeviceSerialNumber": "18926",
    "DwellTime": 2.6e-06,
    "EchoTime": 0.025,
    "EffectiveEchoSpacing": 0.000200001,
    "FlipAngle": 50,
    "ImageOrientationPatientDICOM": [
      0.999992,
      0.00067012,
      0.00404905,
      2.11009e-10,
      0.98658,
      -0.16328
    ],
    "ImageType": [
      "ORIGINAL",
      "PRIMARY",
      "M",
      "ND",
      "ECHO",
      "00",
      "MOSAIC"
    ],
    "InPlanePhaseEncodingDirectionDICOM": "ROW",
    "InstitutionName": "NIMH",
    "InstitutionalDepartmentName": "Department",
    "MRAcquisitionType": "2D",
    "MagneticFieldStrength": 6.98,
    "Manufacturer": "Siemens",
    "ManufacturersModelName": "Investigational_Device_7T",
    "Modality": "MR",
    "ParallelReductionFactorInPlane": 3,
    "PartialFourier": 1,
    "PatientPosition": "HFS",
    "PercentPhaseFOV": 100,
    "PhaseEncodingDirection": "i",
    "PhaseEncodingSteps": 94,
    "PhaseResolution": 1,
    "PixelBandwidth": 2003,
    "ProcedureStepDescription": "MRI_Procedure_Limited",
    "ProtocolName": "NIH_EPI_2.0iso_TR2_Run01",
    "PulseSequenceDetails": "%CustomerSeq%_inati_nih_epi",
    "ReceiveCoilName": "32Ch_Head_7T",
    "ReconMatrixPE": 96,
    "RepetitionTime": 2,
    "SAR": 0.0825282,
    "ScanningSequence": "EP",
    "SequenceName": "epfid2d1_96",
    "SequenceVariant": "SK",
    "SeriesDescription": "NIH_EPI_2.0iso_TR2_Run01",
    "SeriesNumber": 6,
    "ShimSetting": [
      -50,
      218,
      853,
      1213,
      -183,
      571,
      69,
      -438
    ],
    "SliceThickness": 2,
    "SliceTiming": [
      1.005,
      0,
      1.0425,
      0.0375,
      1.0775,
      0.075,
      1.115,
      0.1125,
      1.1525,
      0.15,
      1.19,
      0.1875,
      1.2275,
      0.2225,
      1.265,
      0.26,
      1.3025,
      0.2975,
      1.34,
      0.335,
      1.375,
      0.3725,
      1.4125,
      0.41,
      1.45,
      0.4475,
      1.4875,
      0.485,
      1.525,
      0.52,
      1.5625,
      0.5575,
      1.6,
      0.595,
      1.6375,
      0.6325,
      1.6725,
      0.67,
      1.71,
      0.7075,
      1.7475,
      0.745,
      1.785,
      0.78,
      1.8225,
      0.8175,
      1.86,
      0.855,
      1.8975,
      0.8925,
      1.935,
      0.93,
      1.97,
      0.9675
    ],
    "SoftwareVersions": "syngo_MR_B17",
    "SpacingBetweenSlices": 2,
    "StationName": "FMRIFD7T",
    "TaskName": "HalfFovNoTask",
    "TotalReadoutTime": 0.0190001,
    "TxRefAmp": 331,
    "dataset": "ds001555",
    "dcmmeta_affine": [
      [
        -1.9999831914901733,
        4.2201880878778297e-10,
        0.008208253420889378,
        95.76705169677734
      ],
      [
        -0.0013402394251897931,
        1.973159670829773,
        -0.32655632495880127,
        -58.3952751159668
      ],
      [
        0.008098097518086433,
        0.32655906677246094,
        1.9731431007385254,
        -41.57032775878906
      ],
      [
        0.0,
        0.0,
        0.0,
        1.0
      ]
    ],
    "dcmmeta_reorient_transform": [
      [
        0.0,
        -1.0,
        0.0,
        95.0
      ],
      [
        1.0,
        0.0,
        0.0,
        0.0
      ],
      [
        0.0,
        0.0,
        1.0,
        0.0
      ],
      [
        0.0,
        0.0,
        0.0,
        1.0
      ]
    ],
    "dcmmeta_shape": [
      96,
      96,
      54,
      164
    ],
    "dcmmeta_slice_dim": 2,
    "dcmmeta_version": 0.6,
    "global": {
      "const": {
        "AcquisitionMatrix": [
          0,
          96,
          96,
          0
        ],
        "Allergies": "No Known Allergies",
        "AngioFlag": "N",
        "BitsAllocated": 16,
        "BitsStored": 12,
        "BodyPartExamined": "HEAD",
        "Columns": 768,
        "EchoNumbers": 1,
        "EchoTime": 25.0,
        "EchoTrainLength": 1,
        "FlipAngle": 50.0,
        "HighBit": 11,
        "ImageOrientationPatient": [
          0.99999157803662,
          0.00067011969073,
          0.00404904870684,
          2.110094e-10,
          0.98657984636313,
          -0.1632795356133
        ],
        "ImagePositionPatient": [
          -767.761392775,
          -792.48687407585,
          96.455670438306
        ],
        "ImageType": [
          "ORIGINAL",
          "PRIMARY",
          "M",
          "ND",
          "ECHO_00",
          "MOSAIC"
        ],
        "ImagedNucleus": "1H",
        "ImagingFrequency": 297.205096,
        "InPlanePhaseEncodingDirection": "ROW",
        "LargestImagePixelValue": 4095,
        "MRAcquisitionType": "2D",
        "MagneticFieldStrength": 6.98,
        "Manufacturer": "SIEMENS",
        "ManufacturerModelName": "Investigational_Device_7T",
        "Modality": "MR",
        "NumberOfAverages": 1.0,
        "NumberOfPhaseEncodingSteps": 94,
        "PercentPhaseFieldOfView": 100.0,
        "PercentSampling": 100.0,
        "PerformedProcedureStepStartTime": "170131.504000",
        "PhotometricInterpretation": "MONOCHROME2",
        "PixelBandwidth": 2003.0,
        "PixelRepresentation": 0,
        "PixelSpacing": [
          2.0,
          2.0
        ],
        "PositionReferenceIndicator": "",
        "ProcedureCodeSequence": [
          {
            "CodeMeaning": "MRI Procedure Limited",
            "CodeValue": "MI01491",
            "CodingSchemeDesignator": "USA Standard",
            "ContextIdentifier": "4000100956"
          }
        ],
        "ProtocolName": "NIH_EPI_2.0iso_TR2_Run01",
        "ReferencedStudySequence": [
          {
            "ReferencedSOPClassUID": "1.2.840.10008.3.1.2.3.1",
            "ReferencedSOPInstanceUID": "1.2.840.113564.9.1.2723958737.61.2.5000066720"
          }
        ],
        "RepetitionTime": 2000.0,
        "RequestedProcedureCodeSequence": [
          {
            "CodeMeaning": "MRI Procedure Limited",
            "CodeValue": "MI01491",
            "CodingSchemeDesignator": "USA Standard",
            "ContextIdentifier": "4000100956"
          }
        ],
        "RequestingService": "MHMI",
        "Rows": 768,
        "SAR": 0.08252816967743,
        "SamplesPerPixel": 1,
        "ScanningSequence": "EP",
        "SequenceName": "epfid2d1_96",
        "SequenceVariant": "SK",
        "SeriesDescription": "NIH_EPI_2.0iso_TR2_Run01",
        "SeriesNumber": 6,
        "SliceLocation": -31.084389907735,
        "SliceThickness": 2.0,
        "SmallestImagePixelValue": 0,
        "SoftwareVersions": "syngo MR B17",
        "SpacingBetweenSlices": 2.0000000184226,
        "TransmitCoilName": "32Ch_Head_7T",
        "VariableFlipAngleFlag": "N",
        "WindowCenterWidthExplanation": "Algo1",
        "dBdt": 0.0
      },
      "slices": {}
    },
    "modality": "bold",
    "run_id": 3,
    "session_id": "03",
    "subject_id": "001",
    "task_id": "HalfFovNoTask",
    "time": {
      "samples": {
        "AcquisitionNumber": [
          1,
          2,
          3,
          4,
          5,
          6,
          7,
          8,
          9,
          10,
          11,
          12,
          13,
          14,
          15,
          16,
          17,
          18,
          19,
          20,
          21,
          22,
          23,
          24,
          25,
          26,
          27,
          28,
          29,
          30,
          31,
          32,
          33,
          34,
          35,
          36,
          37,
          38,
          39,
          40,
          41,
          42,
          43,
          44,
          45,
          46,
          47,
          48,
          49,
          50,
          51,
          52,
          53,
          54,
          55,
          56,
          57,
          58,
          59,
          60,
          61,
          62,
          63,
          64,
          65,
          66,
          67,
          68,
          69,
          70,
          71,
          72,
          73,
          74,
          75,
          76,
          77,
          78,
          79,
          80,
          81,
          82,
          83,
          84,
          85,
          86,
          87,
          88,
          89,
          90,
          91,
          92,
          93,
          94,
          95,
          96,
          97,
          98,
          99,
          100,
          101,
          102,
          103,
          104,
          105,
          106,
          107,
          108,
          109,
          110,
          111,
          112,
          113,
          114,
          115,
          116,
          117,
          118,
          119,
          120,
          121,
          122,
          123,
          124,
          125,
          126,
          127,
          128,
          129,
          130,
          131,
          132,
          133,
          134,
          135,
          136,
          137,
          138,
          139,
          140,
          141,
          142,
          143,
          144,
          145,
          146,
          147,
          148,
          149,
          150,
          151,
          152,
          153,
          154,
          155,
          156,
          157,
          158,
          159,
          160,
          161,
          162,
          163,
          164
        ],
        "AcquisitionTime": [
          "173006.207500",
          "173010.222500",
          "173012.230000",
          "173014.240000",
          "173016.247500",
          "173018.255000",
          "173020.262500",
          "173022.270000",
          "173024.280000",
          "173026.287500",
          "173028.295000",
          "173030.302500",
          "173032.310000",
          "173034.320000",
          "173036.327500",
          "173038.335000",
          "173040.342500",
          "173042.352500",
          "173044.360000",
          "173046.367500",
          "173048.375000",
          "173050.382500",
          "173052.392500",
          "173054.400000",
          "173056.407500",
          "173058.415000",
          "173100.422500",
          "173102.432500",
          "173104.440000",
          "173106.447500",
          "173108.455000",
          "173110.465000",
          "173112.472500",
          "173114.480000",
          "173116.487500",
          "173118.495000",
          "173120.505000",
          "173122.512500",
          "173124.520000",
          "173126.527500",
          "173128.535000",
          "173130.545000",
          "173132.552500",
          "173134.560000",
          "173136.567500",
          "173138.577500",
          "173140.585000",
          "173142.592500",
          "173144.600000",
          "173146.607500",
          "173148.617500",
          "173150.625000",
          "173152.632500",
          "173154.640000",
          "173156.647500",
          "173158.657500",
          "173200.665000",
          "173202.672500",
          "173204.680000",
          "173206.687500",
          "173208.697500",
          "173210.705000",
          "173212.712500",
          "173214.720000",
          "173216.730000",
          "173218.737500",
          "173220.745000",
          "173222.752500",
          "173224.760000",
          "173226.770000",
          "173228.777500",
          "173230.785000",
          "173232.792500",
          "173234.800000",
          "173236.810000",
          "173238.817500",
          "173240.825000",
          "173242.832500",
          "173244.842500",
          "173246.850000",
          "173248.857500",
          "173250.865000",
          "173252.872500",
          "173254.882500",
          "173256.890000",
          "173258.897500",
          "173300.905000",
          "173302.912500",
          "173304.922500",
          "173306.930000",
          "173308.937500",
          "173310.945000",
          "173312.955000",
          "173314.962500",
          "173316.970000",
          "173318.977500",
          "173320.985000",
          "173322.995000",
          "173325.002500",
          "173327.010000",
          "173329.017500",
          "173331.025000",
          "173333.035000",
          "173335.042500",
          "173337.050000",
          "173339.057500",
          "173341.067500",
          "173343.075000",
          "173345.082500",
          "173347.090000",
          "173349.097500",
          "173351.107500",
          "173353.115000",
          "173355.122500",
          "173357.130000",
          "173359.137500",
          "173401.147500",
          "173403.155000",
          "173405.162500",
          "173407.170000",
          "173409.177500",
          "173411.187500",
          "173413.195000",
          "173415.202500",
          "173417.210000",
          "173419.220000",
          "173421.227500",
          "173423.235000",
          "173425.242500",
          "173427.250000",
          "173429.260000",
          "173431.267500",
          "173433.275000",
          "173435.282500",
          "173437.290000",
          "173439.300000",
          "173441.307500",
          "173443.315000",
          "173445.322500",
          "173447.332500",
          "173449.340000",
          "173451.347500",
          "173453.355000",
          "173455.362500",
          "173457.372500",
          "173459.380000",
          "173501.387500",
          "173503.395000",
          "173505.402500",
          "173507.412500",
          "173509.420000",
          "173511.427500",
          "173513.435000",
          "173515.445000",
          "173517.452500",
          "173519.460000",
          "173521.467500",
          "173523.475000",
          "173525.485000",
          "173527.492500",
          "173529.500000",
          "173531.507500",
          "173533.515000",
          "173535.525000"
        ],
        "ContentTime": [
          "173100.285000",
          "173100.285000",
          "173100.285000",
          "173100.285000",
          "173100.285000",
          "173100.300000",
          "173100.300000",
          "173100.300000",
          "173100.300000",
          "173100.300000",
          "173100.300000",
          "173100.300000",
          "173100.316000",
          "173100.316000",
          "173100.316000",
          "173100.316000",
          "173100.316000",
          "173100.332000",
          "173100.332000",
          "173100.332000",
          "173100.332000",
          "173100.332000",
          "173100.347000",
          "173100.347000",
          "173100.347000",
          "173100.347000",
          "173140.269000",
          "173140.269000",
          "173140.269000",
          "173140.285000",
          "173140.285000",
          "173140.285000",
          "173140.285000",
          "173140.285000",
          "173140.285000",
          "173140.300000",
          "173140.300000",
          "173140.300000",
          "173140.300000",
          "173140.300000",
          "173140.300000",
          "173140.316000",
          "173140.316000",
          "173140.316000",
          "173140.316000",
          "173140.316000",
          "173220.269000",
          "173220.269000",
          "173220.269000",
          "173220.285000",
          "173220.285000",
          "173220.300000",
          "173220.300000",
          "173220.300000",
          "173220.300000",
          "173220.300000",
          "173220.316000",
          "173220.316000",
          "173220.316000",
          "173220.316000",
          "173220.316000",
          "173220.316000",
          "173220.316000",
          "173220.332000",
          "173220.332000",
          "173220.332000",
          "173300.269000",
          "173300.269000",
          "173300.269000",
          "173300.285000",
          "173300.285000",
          "173300.285000",
          "173300.285000",
          "173300.285000",
          "173300.285000",
          "173300.285000",
          "173300.300000",
          "173300.300000",
          "173300.300000",
          "173300.300000",
          "173300.300000",
          "173300.300000",
          "173300.300000",
          "173300.316000",
          "173300.316000",
          "173300.316000",
          "173320.269000",
          "173320.269000",
          "173320.285000",
          "173320.285000",
          "173320.285000",
          "173320.285000",
          "173320.285000",
          "173320.300000",
          "173320.300000",
          "173320.300000",
          "173400.269000",
          "173400.269000",
          "173400.269000",
          "173400.285000",
          "173400.285000",
          "173400.285000",
          "173400.285000",
          "173400.285000",
          "173400.285000",
          "173400.300000",
          "173400.300000",
          "173400.300000",
          "173400.300000",
          "173400.316000",
          "173400.316000",
          "173400.316000",
          "173400.332000",
          "173400.332000",
          "173400.332000",
          "173400.332000",
          "173440.269000",
          "173440.269000",
          "173440.269000",
          "173440.285000",
          "173440.285000",
          "173440.285000",
          "173440.285000",
          "173440.285000",
          "173440.285000",
          "173440.300000",
          "173440.300000",
          "173440.300000",
          "173440.300000",
          "173440.300000",
          "173440.300000",
          "173440.300000",
          "173440.316000",
          "173440.316000",
          "173440.316000",
          "173440.316000",
          "173520.269000",
          "173520.269000",
          "173520.269000",
          "173520.285000",
          "173520.285000",
          "173520.285000",
          "173520.285000",
          "173520.285000",
          "173520.285000",
          "173520.285000",
          "173520.300000",
          "173520.300000",
          "173520.300000",
          "173520.316000",
          "173520.316000",
          "173520.316000",
          "173520.316000",
          "173520.332000",
          "173520.332000",
          "173520.332000",
          "173536.144000",
          "173536.144000",
          "173536.144000",
          "173536.144000",
          "173536.144000",
          "173536.160000",
          "173536.160000",
          "173536.160000"
        ],
        "InstanceCreationTime": [
          "173100.285000",
          "173100.285000",
          "173100.285000",
          "173100.285000",
          "173100.285000",
          "173100.300000",
          "173100.300000",
          "173100.300000",
          "173100.300000",
          "173100.300000",
          "173100.300000",
          "173100.300000",
          "173100.316000",
          "173100.316000",
          "173100.316000",
          "173100.316000",
          "173100.316000",
          "173100.332000",
          "173100.332000",
          "173100.332000",
          "173100.332000",
          "173100.332000",
          "173100.347000",
          "173100.347000",
          "173100.347000",
          "173100.347000",
          "173140.269000",
          "173140.269000",
          "173140.269000",
          "173140.285000",
          "173140.285000",
          "173140.285000",
          "173140.285000",
          "173140.285000",
          "173140.285000",
          "173140.300000",
          "173140.300000",
          "173140.300000",
          "173140.300000",
          "173140.300000",
          "173140.300000",
          "173140.316000",
          "173140.316000",
          "173140.316000",
          "173140.316000",
          "173140.316000",
          "173220.269000",
          "173220.269000",
          "173220.269000",
          "173220.285000",
          "173220.285000",
          "173220.300000",
          "173220.300000",
          "173220.300000",
          "173220.300000",
          "173220.300000",
          "173220.316000",
          "173220.316000",
          "173220.316000",
          "173220.316000",
          "173220.316000",
          "173220.316000",
          "173220.316000",
          "173220.332000",
          "173220.332000",
          "173220.332000",
          "173300.269000",
          "173300.269000",
          "173300.269000",
          "173300.285000",
          "173300.285000",
          "173300.285000",
          "173300.285000",
          "173300.285000",
          "173300.285000",
          "173300.285000",
          "173300.300000",
          "173300.300000",
          "173300.300000",
          "173300.300000",
          "173300.300000",
          "173300.300000",
          "173300.300000",
          "173300.316000",
          "173300.316000",
          "173300.316000",
          "173320.269000",
          "173320.269000",
          "173320.285000",
          "173320.285000",
          "173320.285000",
          "173320.285000",
          "173320.285000",
          "173320.300000",
          "173320.300000",
          "173320.300000",
          "173400.269000",
          "173400.269000",
          "173400.269000",
          "173400.285000",
          "173400.285000",
          "173400.285000",
          "173400.285000",
          "173400.285000",
          "173400.285000",
          "173400.300000",
          "173400.300000",
          "173400.300000",
          "173400.300000",
          "173400.316000",
          "173400.316000",
          "173400.316000",
          "173400.332000",
          "173400.332000",
          "173400.332000",
          "173400.332000",
          "173440.269000",
          "173440.269000",
          "173440.269000",
          "173440.285000",
          "173440.285000",
          "173440.285000",
          "173440.285000",
          "173440.285000",
          "173440.285000",
          "173440.300000",
          "173440.300000",
          "173440.300000",
          "173440.300000",
          "173440.300000",
          "173440.300000",
          "173440.300000",
          "173440.316000",
          "173440.316000",
          "173440.316000",
          "173440.316000",
          "173520.269000",
          "173520.269000",
          "173520.269000",
          "173520.285000",
          "173520.285000",
          "173520.285000",
          "173520.285000",
          "173520.285000",
          "173520.285000",
          "173520.285000",
          "173520.300000",
          "173520.300000",
          "173520.300000",
          "173520.316000",
          "173520.316000",
          "173520.316000",
          "173520.316000",
          "173520.332000",
          "173520.332000",
          "173520.332000",
          "173536.144000",
          "173536.144000",
          "173536.144000",
          "173536.144000",
          "173536.144000",
          "173536.160000",
          "173536.160000",
          "173536.160000"
        ],
        "InstanceNumber": [
          1,
          2,
          3,
          4,
          5,
          6,
          7,
          8,
          9,
          10,
          11,
          12,
          13,
          14,
          15,
          16,
          17,
          18,
          19,
          20,
          21,
          22,
          23,
          24,
          25,
          26,
          27,
          28,
          29,
          30,
          31,
          32,
          33,
          34,
          35,
          36,
          37,
          38,
          39,
          40,
          41,
          42,
          43,
          44,
          45,
          46,
          47,
          48,
          49,
          50,
          51,
          52,
          53,
          54,
          55,
          56,
          57,
          58,
          59,
          60,
          61,
          62,
          63,
          64,
          65,
          66,
          67,
          68,
          69,
          70,
          71,
          72,
          73,
          74,
          75,
          76,
          77,
          78,
          79,
          80,
          81,
          82,
          83,
          84,
          85,
          86,
          87,
          88,
          89,
          90,
          91,
          92,
          93,
          94,
          95,
          96,
          97,
          98,
          99,
          100,
          101,
          102,
          103,
          104,
          105,
          106,
          107,
          108,
          109,
          110,
          111,
          112,
          113,
          114,
          115,
          116,
          117,
          118,
          119,
          120,
          121,
          122,
          123,
          124,
          125,
          126,
          127,
          128,
          129,
          130,
          131,
          132,
          133,
          134,
          135,
          136,
          137,
          138,
          139,
          140,
          141,
          142,
          143,
          144,
          145,
          146,
          147,
          148,
          149,
          150,
          151,
          152,
          153,
          154,
          155,
          156,
          157,
          158,
          159,
          160,
          161,
          162,
          163,
          164
        ],
        "WindowCenter": [
          1226.0,
          1224.0,
          1222.0,
          1222.0,
          1221.0,
          1221.0,
          1222.0,
          1222.0,
          1225.0,
          1224.0,
          1222.0,
          1221.0,
          1221.0,
          1221.0,
          1221.0,
          1221.0,
          1220.0,
          1220.0,
          1220.0,
          1220.0,
          1221.0,
          1220.0,
          1220.0,
          1220.0,
          1219.0,
          1220.0,
          1221.0,
          1222.0,
          1222.0,
          1221.0,
          1220.0,
          1220.0,
          1220.0,
          1222.0,
          1221.0,
          1221.0,
          1221.0,
          1221.0,
          1221.0,
          1221.0,
          1221.0,
          1219.0,
          1217.0,
          1218.0,
          1219.0,
          1219.0,
          1218.0,
          1216.0,
          1212.0,
          1212.0,
          1215.0,
          1215.0,
          1218.0,
          1221.0,
          1224.0,
          1226.0,
          1225.0,
          1225.0,
          1225.0,
          1225.0,
          1225.0,
          1226.0,
          1224.0,
          1225.0,
          1225.0,
          1224.0,
          1224.0,
          1223.0,
          1222.0,
          1221.0,
          1220.0,
          1221.0,
          1221.0,
          1222.0,
          1221.0,
          1221.0,
          1220.0,
          1222.0,
          1224.0,
          1223.0,
          1224.0,
          1223.0,
          1222.0,
          1222.0,
          1222.0,
          1224.0,
          1224.0,
          1224.0,
          1223.0,
          1223.0,
          1223.0,
          1223.0,
          1224.0,
          1223.0,
          1223.0,
          1223.0,
          1223.0,
          1222.0,
          1223.0,
          1224.0,
          1223.0,
          1221.0,
          1220.0,
          1221.0,
          1221.0,
          1221.0,
          1221.0,
          1221.0,
          1223.0,
          1225.0,
          1224.0,
          1222.0,
          1221.0,
          1222.0,
          1222.0,
          1223.0,
          1223.0,
          1223.0,
          1222.0,
          1222.0,
          1223.0,
          1223.0,
          1223.0,
          1222.0,
          1223.0,
          1223.0,
          1224.0,
          1225.0,
          1226.0,
          1224.0,
          1223.0,
          1221.0,
          1222.0,
          1222.0,
          1223.0,
          1223.0,
          1224.0,
          1224.0,
          1222.0,
          1222.0,
          1221.0,
          1223.0,
          1223.0,
          1222.0,
          1222.0,
          1223.0,
          1223.0,
          1222.0,
          1222.0,
          1222.0,
          1222.0,
          1221.0,
          1222.0,
          1222.0,
          1221.0,
          1222.0,
          1221.0,
          1222.0,
          1222.0,
          1223.0,
          1223.0,
          1223.0,
          1224.0,
          1226.0
        ],
        "WindowWidth": [
          2923.0,
          2919.0,
          2918.0,
          2915.0,
          2913.0,
          2914.0,
          2917.0,
          2921.0,
          2923.0,
          2919.0,
          2914.0,
          2911.0,
          2912.0,
          2914.0,
          2914.0,
          2914.0,
          2912.0,
          2909.0,
          2911.0,
          2912.0,
          2912.0,
          2912.0,
          2910.0,
          2909.0,
          2911.0,
          2910.0,
          2915.0,
          2916.0,
          2915.0,
          2913.0,
          2911.0,
          2914.0,
          2916.0,
          2917.0,
          2917.0,
          2914.0,
          2913.0,
          2915.0,
          2915.0,
          2915.0,
          2912.0,
          2910.0,
          2905.0,
          2911.0,
          2910.0,
          2909.0,
          2904.0,
          2898.0,
          2890.0,
          2888.0,
          2895.0,
          2900.0,
          2908.0,
          2917.0,
          2923.0,
          2928.0,
          2927.0,
          2924.0,
          2924.0,
          2925.0,
          2926.0,
          2926.0,
          2926.0,
          2925.0,
          2924.0,
          2924.0,
          2923.0,
          2921.0,
          2916.0,
          2916.0,
          2915.0,
          2918.0,
          2917.0,
          2918.0,
          2914.0,
          2913.0,
          2914.0,
          2916.0,
          2920.0,
          2922.0,
          2920.0,
          2917.0,
          2914.0,
