{
  "aor": 0.0022384146341463415,
  "aqi": 0.007203882500000001,
  "bids_meta": {
    "AcquisitionMatrixPE": 96,
    "AcquisitionNumber": 1,
    "AcquisitionTime": "14:20:23.580000",
    "BandwidthPerPixelPhaseEncode": 52.083,
    "BaseResolution": 96,
    "BodyPartExamined": "HEAD",
    "ConversionSoftware": "dcm2niix",
    "ConversionSoftwareVersion": "v1.0.20180622 GCC6.3.0",
    "DerivedVendorReportedEchoSpacing": 0.000600004,
    "DeviceSerialNumber": "18926",
    "DwellTime": 2.6e-06,
    "EchoTime": 0.025,
    "EffectiveEchoSpacing": 0.000200001,
    "FlipAngle": 50,
    "ImageOrientationPatientDICOM": [
      0.999992,
      2.12957e-05,
      0.00410407,
      2.05498e-10,
      0.999987,
      -0.00518891
    ],
    "ImageType": [
      "ORIGINAL",
      "PRIMARY",
      "M",
      "ND",
      "ECHO",
      "00",
      "MOSAIC"
    ],
    "InPlanePhaseEncodingDirectionDICOM": "ROW",
    "InstitutionName": "NIMH",
    "InstitutionalDepartmentName": "Department",
    "MRAcquisitionType": "2D",
    "MagneticFieldStrength": 6.98,
    "Manufacturer": "Siemens",
    "ManufacturersModelName": "Investigational_Device_7T",
    "Modality": "MR",
    "ParallelReductionFactorInPlane": 3,
    "PartialFourier": 1,
    "PatientPosition": "HFS",
    "PercentPhaseFOV": 100,
    "PhaseEncodingDirection": "i",
    "PhaseEncodingSteps": 94,
    "PhaseResolution": 1,
    "PixelBandwidth": 2003,
    "ProcedureStepDescription": "MRI_Procedure_Limited",
    "ProtocolName": "NIH_EPI_2.0iso_TR2_Run08",
    "PulseSequenceDetails": "%CustomerSeq%_inati_nih_epi",
    "ReceiveCoilName": "32Ch_Head_7T",
    "ReconMatrixPE": 96,
    "RepetitionTime": 2,
    "SAR": 0.090368,
    "ScanningSequence": "EP",
    "SequenceName": "epfid2d1_96",
    "SequenceVariant": "SK",
    "SeriesDescription": "NIH_EPI_2.0iso_TR2_Run08",
    "SeriesNumber": 13,
    "ShimSetting": [
      -74,
      143,
      1102,
      2258,
      -61,
      565,
      252,
      -378
    ],
    "SliceThickness": 2,
    "SliceTiming": [
      1.005,
      0,
      1.0425,
      0.0375,
      1.08,
      0.075,
      1.115,
      0.1125,
      1.1525,
      0.15,
      1.19,
      0.1875,
      1.2275,
      0.225,
      1.265,
      0.26,
      1.3025,
      0.2975,
      1.34,
      0.335,
      1.3775,
      0.3725,
      1.4125,
      0.41,
      1.45,
      0.4475,
      1.4875,
      0.485,
      1.525,
      0.52,
      1.5625,
      0.5575,
      1.6,
      0.595,
      1.6375,
      0.6325,
      1.6725,
      0.67,
      1.71,
      0.7075,
      1.7475,
      0.745,
      1.785,
      0.7825,
      1.8225,
      0.8175,
      1.86,
      0.855,
      1.8975,
      0.8925,
      1.935,
      0.93,
      1.97,
      0.9675
    ],
    "SoftwareVersions": "syngo_MR_B17",
    "SpacingBetweenSlices": 2,
    "StationName": "FMRIFD7T",
    "TaskName": "FullFovAttentionTask",
    "TotalReadoutTime": 0.0190001,
    "TxRefAmp": 277,
    "dataset": "ds001555",
    "dcmmeta_affine": [
      [
        -1.9999831914901733,
        4.1099659786603127e-10,
        0.008208253420889378,
        95.76705169677734
      ],
      [
        -4.259147317497991e-05,
        1.9999730587005615,
        -0.010377731174230576,
        -70.11437225341797
      ],
      [
        0.008208143524825573,
        0.01037781871855259,
        1.9999561309814453,
        -37.54548645019531
      ],
      [
        0.0,
        0.0,
        0.0,
        1.0
      ]
    ],
    "dcmmeta_reorient_transform": [
      [
        0.0,
        -1.0,
        0.0,
        95.0
      ],
      [
        1.0,
        0.0,
        0.0,
        0.0
      ],
      [
        0.0,
        0.0,
        1.0,
        0.0
      ],
      [
        0.0,
        0.0,
        0.0,
        1.0
      ]
    ],
    "dcmmeta_shape": [
      96,
      96,
      54,
      164
    ],
    "dcmmeta_slice_dim": 2,
    "dcmmeta_version": 0.6,
    "global": {
      "const": {
        "AcquisitionMatrix": [
          0,
          96,
          96,
          0
        ],
        "Allergies": "No Known Allergies",
        "AngioFlag": "N",
        "BitsAllocated": 16,
        "BitsStored": 12,
        "BodyPartExamined": "HEAD",
        "Columns": 768,
        "EchoNumbers": 1,
        "EchoTime": 25.0,
        "EchoTrainLength": 1,
        "FlipAngle": 50.0,
        "HighBit": 11,
        "ImageOrientationPatient": [
          0.9999915780361,
          2.129573671e-05,
          0.00410407156009,
          2.054983e-10,
          0.99998653751898,
          -0.0051889094043
        ],
        "ImagePositionPatient": [
          -767.76139277037,
          -791.88833443707,
          -35.830582786369
        ],
        "ImageType": [
          "ORIGINAL",
          "PRIMARY",
          "M",
          "ND",
          "ECHO_00",
          "MOSAIC"
        ],
        "ImagedNucleus": "1H",
        "ImagingFrequency": 297.205096,
        "InPlanePhaseEncodingDirection": "ROW",
        "LargestImagePixelValue": 4095,
        "MRAcquisitionType": "2D",
        "MagneticFieldStrength": 6.98,
        "Manufacturer": "SIEMENS",
        "ManufacturerModelName": "Investigational_Device_7T",
        "Modality": "MR",
        "NumberOfAverages": 1.0,
        "NumberOfPhaseEncodingSteps": 94,
        "PercentPhaseFieldOfView": 100.0,
        "PercentSampling": 100.0,
        "PerformedProcedureStepStartTime": "130113.462000",
        "PhotometricInterpretation": "MONOCHROME2",
        "PixelBandwidth": 2003.0,
        "PixelRepresentation": 0,
        "PixelSpacing": [
          2.0,
          2.0
        ],
        "PositionReferenceIndicator": "",
        "ProcedureCodeSequence": [
          {
            "CodeMeaning": "MRI Procedure Limited",
            "CodeValue": "MI01491",
            "CodingSchemeDesignator": "USA Standard",
            "ContextIdentifier": "4000112203"
          }
        ],
        "ProtocolName": "NIH_EPI_2.0iso_TR2_Run08",
        "ReferencedStudySequence": [
          {
            "ReferencedSOPClassUID": "1.2.840.10008.3.1.2.3.1",
            "ReferencedSOPInstanceUID": "1.2.840.113564.9.1.2723958737.61.2.5000078010"
          }
        ],
        "RepetitionTime": 2000.0,
        "RequestedProcedureCodeSequence": [
          {
            "CodeMeaning": "MRI Procedure Limited",
            "CodeValue": "MI01491",
            "CodingSchemeDesignator": "USA Standard",
            "ContextIdentifier": "4000112203"
          }
        ],
        "RequestingService": "MHMI",
        "Rows": 768,
        "SAR": 0.09036795682303,
        "SamplesPerPixel": 1,
        "ScanningSequence": "EP",
        "SequenceName": "epfid2d1_96",
        "SequenceVariant": "SK",
        "SeriesDescription": "NIH_EPI_2.0iso_TR2_Run08",
        "SeriesNumber": 13,
        "SliceLocation": -36.78781076192,
        "SliceThickness": 2.0,
        "SmallestImagePixelValue": 0,
        "SoftwareVersions": "syngo MR B17",
        "SpacingBetweenSlices": 1.9999999356774,
        "TransmitCoilName": "32Ch_Head_7T",
        "VariableFlipAngleFlag": "N",
        "WindowCenterWidthExplanation": "Algo1",
        "dBdt": 0.0
      },
      "slices": {}
    },
    "modality": "bold",
    "run_id": 10,
    "session_id": "03",
    "subject_id": "003",
    "task_id": "FullFovAttentionTask",
    "time": {
      "samples": {
        "AcquisitionNumber": [
          1,
          2,
          3,
          4,
          5,
          6,
          7,
          8,
          9,
          10,
          11,
          12,
          13,
          14,
          15,
          16,
          17,
          18,
          19,
          20,
          21,
          22,
          23,
          24,
          25,
          26,
          27,
          28,
          29,
          30,
          31,
          32,
          33,
          34,
          35,
          36,
          37,
          38,
          39,
          40,
          41,
          42,
          43,
          44,
          45,
          46,
          47,
          48,
          49,
          50,
          51,
          52,
          53,
          54,
          55,
          56,
          57,
          58,
          59,
          60,
          61,
          62,
          63,
          64,
          65,
          66,
          67,
          68,
          69,
          70,
          71,
          72,
          73,
          74,
          75,
          76,
          77,
          78,
          79,
          80,
          81,
          82,
          83,
          84,
          85,
          86,
          87,
          88,
          89,
          90,
          91,
          92,
          93,
          94,
          95,
          96,
          97,
          98,
          99,
          100,
          101,
          102,
          103,
          104,
          105,
          106,
          107,
          108,
          109,
          110,
          111,
          112,
          113,
          114,
          115,
          116,
          117,
          118,
          119,
          120,
          121,
          122,
          123,
          124,
          125,
          126,
          127,
          128,
          129,
          130,
          131,
          132,
          133,
          134,
          135,
          136,
          137,
          138,
          139,
          140,
          141,
          142,
          143,
          144,
          145,
          146,
          147,
          148,
          149,
          150,
          151,
          152,
          153,
          154,
          155,
          156,
          157,
          158,
          159,
          160,
          161,
          162,
          163,
          164
        ],
        "AcquisitionTime": [
          "142023.580000",
          "142027.595000",
          "142029.602500",
          "142031.612500",
          "142033.620000",
          "142035.627500",
          "142037.635000",
          "142039.645000",
          "142041.652500",
          "142043.660000",
          "142045.667500",
          "142047.675000",
          "142049.685000",
          "142051.692500",
          "142053.700000",
          "142055.707500",
          "142057.715000",
          "142059.725000",
          "142101.732500",
          "142103.740000",
          "142105.747500",
          "142107.755000",
          "142109.765000",
          "142111.772500",
          "142113.780000",
          "142115.787500",
          "142117.797500",
          "142119.805000",
          "142121.812500",
          "142123.820000",
          "142125.827500",
          "142127.837500",
          "142129.845000",
          "142131.852500",
          "142133.860000",
          "142135.867500",
          "142137.877500",
          "142139.885000",
          "142141.892500",
          "142143.900000",
          "142145.910000",
          "142147.917500",
          "142149.925000",
          "142151.932500",
          "142153.940000",
          "142155.950000",
          "142157.957500",
          "142159.965000",
          "142201.972500",
          "142203.980000",
          "142205.990000",
          "142207.997500",
          "142210.005000",
          "142212.012500",
          "142214.022500",
          "142216.030000",
          "142218.037500",
          "142220.045000",
          "142222.052500",
          "142224.062500",
          "142226.070000",
          "142228.077500",
          "142230.085000",
          "142232.092500",
          "142234.102500",
          "142236.110000",
          "142238.117500",
          "142240.125000",
          "142242.132500",
          "142244.142500",
          "142246.150000",
          "142248.157500",
          "142250.165000",
          "142252.175000",
          "142254.182500",
          "142256.190000",
          "142258.197500",
          "142300.205000",
          "142302.215000",
          "142304.222500",
          "142306.230000",
          "142308.237500",
          "142310.245000",
          "142312.255000",
          "142314.262500",
          "142316.270000",
          "142318.277500",
          "142320.287500",
          "142322.295000",
          "142324.302500",
          "142326.310000",
          "142328.317500",
          "142330.327500",
          "142332.335000",
          "142334.342500",
          "142336.350000",
          "142338.357500",
          "142340.367500",
          "142342.375000",
          "142344.382500",
          "142346.390000",
          "142348.400000",
          "142350.407500",
          "142352.415000",
          "142354.422500",
          "142356.430000",
          "142358.440000",
          "142400.447500",
          "142402.455000",
          "142404.462500",
          "142406.470000",
          "142408.480000",
          "142410.487500",
          "142412.495000",
          "142414.502500",
          "142416.510000",
          "142418.520000",
          "142420.527500",
          "142422.535000",
          "142424.542500",
          "142426.552500",
          "142428.560000",
          "142430.567500",
          "142432.575000",
          "142434.582500",
          "142436.592500",
          "142438.600000",
          "142440.607500",
          "142442.615000",
          "142444.622500",
          "142446.632500",
          "142448.640000",
          "142450.647500",
          "142452.655000",
          "142454.665000",
          "142456.672500",
          "142458.680000",
          "142500.687500",
          "142502.695000",
          "142504.705000",
          "142506.712500",
          "142508.720000",
          "142510.727500",
          "142512.735000",
          "142514.745000",
          "142516.752500",
          "142518.760000",
          "142520.767500",
          "142522.777500",
          "142524.785000",
          "142526.792500",
          "142528.800000",
          "142530.807500",
          "142532.817500",
          "142534.825000",
          "142536.832500",
          "142538.840000",
          "142540.847500",
          "142542.857500",
          "142544.865000",
          "142546.872500",
          "142548.880000",
          "142550.890000",
          "142552.897500"
        ],
        "ContentTime": [
          "142115.977000",
          "142115.977000",
          "142115.993000",
          "142115.993000",
          "142115.993000",
          "142115.993000",
          "142115.993000",
          "142116.008000",
          "142116.008000",
          "142116.008000",
          "142116.008000",
          "142116.008000",
          "142116.008000",
          "142116.008000",
          "142116.024000",
          "142116.024000",
          "142116.024000",
          "142116.024000",
          "142116.024000",
          "142116.024000",
          "142116.024000",
          "142116.040000",
          "142116.040000",
          "142116.040000",
          "142116.040000",
          "142155.962000",
          "142155.962000",
          "142155.962000",
          "142155.962000",
          "142155.977000",
          "142155.977000",
          "142155.977000",
          "142155.993000",
          "142155.993000",
          "142155.993000",
          "142155.993000",
          "142155.993000",
          "142155.993000",
          "142155.993000",
          "142156.008000",
          "142156.008000",
          "142156.008000",
          "142156.008000",
          "142156.008000",
          "142156.008000",
          "142235.962000",
          "142235.962000",
          "142235.962000",
          "142235.962000",
          "142235.962000",
          "142235.977000",
          "142235.977000",
          "142235.977000",
          "142235.977000",
          "142235.977000",
          "142235.977000",
          "142235.977000",
          "142235.993000",
          "142235.993000",
          "142235.993000",
          "142235.993000",
          "142235.993000",
          "142236.008000",
          "142236.008000",
          "142236.008000",
          "142315.962000",
          "142315.962000",
          "142315.962000",
          "142315.977000",
          "142315.977000",
          "142315.977000",
          "142315.977000",
          "142315.977000",
          "142315.977000",
          "142315.977000",
          "142315.993000",
          "142315.993000",
          "142315.993000",
          "142315.993000",
          "142315.993000",
          "142316.008000",
          "142316.008000",
          "142316.008000",
          "142316.008000",
          "142316.008000",
          "142355.962000",
          "142355.962000",
          "142355.962000",
          "142355.962000",
          "142355.962000",
          "142355.977000",
          "142355.977000",
          "142355.977000",
          "142355.977000",
          "142355.977000",
          "142355.977000",
          "142355.993000",
          "142355.993000",
          "142355.993000",
          "142355.993000",
          "142355.993000",
          "142356.008000",
          "142356.008000",
          "142356.008000",
          "142356.008000",
          "142435.962000",
          "142435.962000",
          "142435.962000",
          "142435.977000",
          "142435.977000",
          "142435.977000",
          "142435.977000",
          "142435.977000",
          "142435.993000",
          "142435.993000",
          "142435.993000",
          "142435.993000",
          "142435.993000",
          "142436.008000",
          "142436.008000",
          "142436.008000",
          "142436.008000",
          "142436.008000",
          "142436.008000",
          "142436.024000",
          "142515.962000",
          "142515.962000",
          "142515.962000",
          "142515.962000",
          "142515.962000",
          "142515.977000",
          "142515.977000",
          "142515.993000",
          "142515.993000",
          "142515.993000",
          "142515.993000",
          "142515.993000",
          "142515.993000",
          "142515.993000",
          "142516.008000",
          "142516.008000",
          "142516.008000",
          "142516.008000",
          "142516.008000",
          "142516.008000",
          "142553.212000",
          "142553.212000",
          "142553.212000",
          "142553.212000",
          "142553.212000",
          "142553.212000",
          "142553.227000",
          "142553.227000",
          "142553.227000",
          "142553.227000",
          "142553.227000",
          "142553.227000",
          "142553.227000",
          "142553.243000",
          "142553.243000",
          "142553.243000",
          "142553.243000",
          "142553.258000",
          "142553.258000"
        ],
        "InstanceCreationTime": [
          "142115.977000",
          "142115.977000",
          "142115.993000",
          "142115.993000",
          "142115.993000",
          "142115.993000",
          "142115.993000",
          "142116.008000",
          "142116.008000",
          "142116.008000",
          "142116.008000",
          "142116.008000",
          "142116.008000",
          "142116.008000",
          "142116.024000",
          "142116.024000",
          "142116.024000",
          "142116.024000",
          "142116.024000",
          "142116.024000",
          "142116.024000",
          "142116.040000",
          "142116.040000",
          "142116.040000",
          "142116.040000",
          "142155.962000",
          "142155.962000",
          "142155.962000",
          "142155.962000",
          "142155.977000",
          "142155.977000",
          "142155.977000",
          "142155.993000",
          "142155.993000",
          "142155.993000",
          "142155.993000",
          "142155.993000",
          "142155.993000",
          "142155.993000",
          "142156.008000",
          "142156.008000",
          "142156.008000",
          "142156.008000",
          "142156.008000",
          "142156.008000",
          "142235.962000",
          "142235.962000",
          "142235.962000",
          "142235.962000",
          "142235.962000",
          "142235.977000",
          "142235.977000",
          "142235.977000",
          "142235.977000",
          "142235.977000",
          "142235.977000",
          "142235.977000",
          "142235.993000",
          "142235.993000",
          "142235.993000",
          "142235.993000",
          "142235.993000",
          "142236.008000",
          "142236.008000",
          "142236.008000",
          "142315.962000",
          "142315.962000",
          "142315.962000",
          "142315.977000",
          "142315.977000",
          "142315.977000",
          "142315.977000",
          "142315.977000",
          "142315.977000",
          "142315.977000",
          "142315.993000",
          "142315.993000",
          "142315.993000",
          "142315.993000",
          "142315.993000",
          "142316.008000",
          "142316.008000",
          "142316.008000",
          "142316.008000",
          "142316.008000",
          "142355.962000",
          "142355.962000",
          "142355.962000",
          "142355.962000",
          "142355.962000",
          "142355.977000",
          "142355.977000",
          "142355.977000",
          "142355.977000",
          "142355.977000",
          "142355.977000",
          "142355.993000",
          "142355.993000",
          "142355.993000",
          "142355.993000",
          "142355.993000",
          "142356.008000",
          "142356.008000",
          "142356.008000",
          "142356.008000",
          "142435.962000",
          "142435.962000",
          "142435.962000",
          "142435.977000",
          "142435.977000",
          "142435.977000",
          "142435.977000",
          "142435.977000",
          "142435.993000",
          "142435.993000",
          "142435.993000",
          "142435.993000",
          "142435.993000",
          "142436.008000",
          "142436.008000",
          "142436.008000",
          "142436.008000",
          "142436.008000",
          "142436.008000",
          "142436.024000",
          "142515.962000",
          "142515.962000",
          "142515.962000",
          "142515.962000",
          "142515.962000",
          "142515.977000",
          "142515.977000",
          "142515.993000",
          "142515.993000",
          "142515.993000",
          "142515.993000",
          "142515.993000",
          "142515.993000",
          "142515.993000",
          "142516.008000",
          "142516.008000",
          "142516.008000",
          "142516.008000",
          "142516.008000",
          "142516.008000",
          "142553.212000",
          "142553.212000",
          "142553.212000",
          "142553.212000",
          "142553.212000",
          "142553.212000",
          "142553.227000",
          "142553.227000",
          "142553.227000",
          "142553.227000",
          "142553.227000",
          "142553.227000",
          "142553.227000",
          "142553.243000",
          "142553.243000",
          "142553.243000",
          "142553.243000",
          "142553.258000",
          "142553.258000"
        ],
        "InstanceNumber": [
          1,
          2,
          3,
          4,
          5,
          6,
          7,
          8,
          9,
          10,
          11,
          12,
          13,
          14,
          15,
          16,
          17,
          18,
          19,
          20,
          21,
          22,
          23,
          24,
          25,
          26,
          27,
          28,
          29,
          30,
          31,
          32,
          33,
          34,
          35,
          36,
          37,
          38,
          39,
          40,
          41,
          42,
          43,
          44,
          45,
          46,
          47,
          48,
          49,
          50,
          51,
          52,
          53,
          54,
          55,
          56,
          57,
          58,
          59,
          60,
          61,
          62,
          63,
          64,
          65,
          66,
          67,
          68,
          69,
          70,
          71,
          72,
          73,
          74,
          75,
          76,
          77,
          78,
          79,
          80,
          81,
          82,
          83,
          84,
          85,
          86,
          87,
          88,
          89,
          90,
          91,
          92,
          93,
          94,
          95,
          96,
          97,
          98,
          99,
          100,
          101,
          102,
          103,
          104,
          105,
          106,
          107,
          108,
          109,
          110,
          111,
          112,
          113,
          114,
          115,
          116,
          117,
          118,
          119,
          120,
          121,
          122,
          123,
          124,
          125,
          126,
          127,
          128,
          129,
          130,
          131,
          132,
          133,
          134,
          135,
          136,
          137,
          138,
          139,
          140,
          141,
          142,
          143,
          144,
          145,
          146,
          147,
          148,
          149,
          150,
          151,
          152,
          153,
          154,
          155,
          156,
          157,
          158,
          159,
          160,
          161,
          162,
          163,
          164
        ],
        "WindowCenter": [
          944.0,
          943.0,
          944.0,
          944.0,
          943.0,
          943.0,
          943.0,
          944.0,
          944.0,
          943.0,
          942.0,
          943.0,
          944.0,
          943.0,
          942.0,
          943.0,
          943.0,
          943.0,
          945.0,
          944.0,
          943.0,
          943.0,
          943.0,
          943.0,
          944.0,
          943.0,
          943.0,
          943.0,
          942.0,
          943.0,
          943.0,
          944.0,
          943.0,
          943.0,
          944.0,
          944.0,
          943.0,
          943.0,
          942.0,
          944.0,
          943.0,
          943.0,
          942.0,
          943.0,
          943.0,
          943.0,
          943.0,
          943.0,
          942.0,
          943.0,
          942.0,
          942.0,
          943.0,
          943.0,
          943.0,
          943.0,
          943.0,
          945.0,
          942.0,
          942.0,
          943.0,
          943.0,
          944.0,
          943.0,
          943.0,
          943.0,
          943.0,
          943.0,
          942.0,
          942.0,
          943.0,
          943.0,
          942.0,
          942.0,
          942.0,
          942.0,
          942.0,
          943.0,
          943.0,
          944.0,
          944.0,
          943.0,
          941.0,
          941.0,
          941.0,
          940.0,
          941.0,
          942.0,
          943.0,
          942.0,
          943.0,
          943.0,
          944.0,
          944.0,
          945.0,
          945.0,
          944.0,
          943.0,
          942.0,
          943.0,
          943.0,
          943.0,
          941.0,
          942.0,
          941.0,
          943.0,
          943.0,
          943.0,
          942.0,
          942.0,
          942.0,
          942.0,
          942.0,
          941.0,
          942.0,
          943.0,
          944.0,
          945.0,
          945.0,
          943.0,
          944.0,
          945.0,
          945.0,
          943.0,
          942.0,
          942.0,
          942.0,
          942.0,
          942.0,
          942.0,
          941.0,
          942.0,
          942.0,
          942.0,
          943.0,
          942.0,
          943.0,
          944.0,
          945.0,
          945.0,
          945.0,
          947.0,
          946.0,
          944.0,
          945.0,
          945.0,
          944.0,
          943.0,
          943.0,
          944.0,
          943.0,
          942.0,
          943.0,
          944.0,
          943.0,
          942.0,
          942.0,
          943.0,
          943.0,
          944.0,
          944.0,
          943.0,
          944.0,
          943.0
        ],
        "WindowWidth": [
          2527.0,
          2526.0,
          2528.0,
          2529.0,
          2529.0,
          2527.0,
          2532.0,
          2539.0,
          2536.0,
          2526.0,
          2526.0,
          2533.0,
          2535.0,
          2533.0,
          2529.0,
          2528.0,
          2534.0,
          2541.0,
          2541.0,
          2534.0,
          2528.0,
          2528.0,
          2532.0,
          2534.0,
          2531.0,
          2531.0,
          2529.0,
          2527.0,
          2527.0,
          2531.0,
          2535.0,
          2533.0,
          2535.0,
          2541.0,
          2543.0,
          2537.0,
          2529.0,
          2528.0,
          2531.0,
          2539.0,
          2540.0,
          2534.0,
          2531.0,
          2535.0,
          2542.0,
          2546.0,
          2539.0,
          2531.0,
          2523.0,
          2523.0,
          2529.0,
          2537.0,
          2538.0,
          2536.0,
          2532.0,
          2536.0,
          2541.0,
          2541.0,
          2535.0,
          2529.0,
          2529.0,
          2533.0,
          2532.0,
          2526.0,
          2530.0,
          2535.0,
          2541.0,
          2539.0,
          2537.0,
          2541.0,
          2546.0,
          2542.0,
          2530.0,
          2525.0,
          2524.0,
          2527.0,
          2533.0,
          2538.0,
          2546.0,
          2552.0,
          2543.0,
          2533.0,
          2524.0,
          2519.0,
          2520.0,
          2521.0,
          2524.0,
          2526.0,
          2527.0,
          2530.0,
          2538.0,
