{
  "aor": 0.0012791463414634145,
  "aqi": 0.011842714085365854,
  "bids_meta": {
    "AcquisitionMatrixPE": 96,
    "AcquisitionNumber": 1,
    "AcquisitionTime": "13:51:37.395000",
    "BandwidthPerPixelPhaseEncode": 52.083,
    "BaseResolution": 96,
    "BodyPartExamined": "HEAD",
    "ConversionSoftware": "dcm2niix",
    "ConversionSoftwareVersion": "v1.0.20180622 GCC6.3.0",
    "DerivedVendorReportedEchoSpacing": 0.000600004,
    "DeviceSerialNumber": "18926",
    "DwellTime": 2.6e-06,
    "EchoTime": 0.025,
    "EffectiveEchoSpacing": 0.000200001,
    "FlipAngle": 50,
    "ImageOrientationPatientDICOM": [
      0.999992,
      2.12957e-05,
      0.00410407,
      2.05498e-10,
      0.999987,
      -0.00518891
    ],
    "ImageType": [
      "ORIGINAL",
      "PRIMARY",
      "M",
      "ND",
      "ECHO",
      "00",
      "MOSAIC"
    ],
    "InPlanePhaseEncodingDirectionDICOM": "ROW",
    "InstitutionName": "NIMH",
    "InstitutionalDepartmentName": "Department",
    "MRAcquisitionType": "2D",
    "MagneticFieldStrength": 6.98,
    "Manufacturer": "Siemens",
    "ManufacturersModelName": "Investigational_Device_7T",
    "Modality": "MR",
    "ParallelReductionFactorInPlane": 3,
    "PartialFourier": 1,
    "PatientPosition": "HFS",
    "PercentPhaseFOV": 100,
    "PhaseEncodingDirection": "i",
    "PhaseEncodingSteps": 94,
    "PhaseResolution": 1,
    "PixelBandwidth": 2003,
    "ProcedureStepDescription": "MRI_Procedure_Limited",
    "ProtocolName": "NIH_EPI_2.0iso_TR2_Run04",
    "PulseSequenceDetails": "%CustomerSeq%_inati_nih_epi",
    "ReceiveCoilName": "32Ch_Head_7T",
    "ReconMatrixPE": 96,
    "RepetitionTime": 2,
    "SAR": 0.090368,
    "ScanningSequence": "EP",
    "SequenceName": "epfid2d1_96",
    "SequenceVariant": "SK",
    "SeriesDescription": "NIH_EPI_2.0iso_TR2_Run04",
    "SeriesNumber": 9,
    "ShimSetting": [
      -74,
      143,
      1102,
      2258,
      -61,
      565,
      252,
      -378
    ],
    "SliceThickness": 2,
    "SliceTiming": [
      1.0025,
      0,
      1.04,
      0.0375,
      1.0775,
      0.075,
      1.115,
      0.11,
      1.1525,
      0.1475,
      1.19,
      0.185,
      1.2275,
      0.2225,
      1.2625,
      0.26,
      1.3,
      0.2975,
      1.3375,
      0.335,
      1.375,
      0.3725,
      1.4125,
      0.4075,
      1.45,
      0.445,
      1.4875,
      0.4825,
      1.525,
      0.52,
      1.56,
      0.5575,
      1.5975,
      0.595,
      1.635,
      0.6325,
      1.6725,
      0.6675,
      1.71,
      0.705,
      1.7475,
      0.7425,
      1.785,
      0.78,
      1.8225,
      0.8175,
      1.8575,
      0.855,
      1.895,
      0.8925,
      1.9325,
      0.93,
      1.97,
      0.965
    ],
    "SoftwareVersions": "syngo_MR_B17",
    "SpacingBetweenSlices": 2,
    "StationName": "FMRIFD7T",
    "TaskName": "FullFovAttentionTask",
    "TotalReadoutTime": 0.0190001,
    "TxRefAmp": 277,
    "dataset": "ds001555",
    "dcmmeta_affine": [
      [
        -1.9999831914901733,
        4.1099659786603127e-10,
        0.008208253420889378,
        95.76705169677734
      ],
      [
        -4.259147317497991e-05,
        1.9999730587005615,
        -0.010377731174230576,
        -70.11437225341797
      ],
      [
        0.008208143524825573,
        0.01037781871855259,
        1.9999561309814453,
        -37.54548645019531
      ],
      [
        0.0,
        0.0,
        0.0,
        1.0
      ]
    ],
    "dcmmeta_reorient_transform": [
      [
        0.0,
        -1.0,
        0.0,
        95.0
      ],
      [
        1.0,
        0.0,
        0.0,
        0.0
      ],
      [
        0.0,
        0.0,
        1.0,
        0.0
      ],
      [
        0.0,
        0.0,
        0.0,
        1.0
      ]
    ],
    "dcmmeta_shape": [
      96,
      96,
      54,
      164
    ],
    "dcmmeta_slice_dim": 2,
    "dcmmeta_version": 0.6,
    "global": {
      "const": {
        "AcquisitionMatrix": [
          0,
          96,
          96,
          0
        ],
        "Allergies": "No Known Allergies",
        "AngioFlag": "N",
        "BitsAllocated": 16,
        "BitsStored": 12,
        "BodyPartExamined": "HEAD",
        "Columns": 768,
        "EchoNumbers": 1,
        "EchoTime": 25.0,
        "EchoTrainLength": 1,
        "FlipAngle": 50.0,
        "HighBit": 11,
        "ImageOrientationPatient": [
          0.9999915780361,
          2.129573671e-05,
          0.00410407156009,
          2.054983e-10,
          0.99998653751898,
          -0.0051889094043
        ],
        "ImagePositionPatient": [
          -767.76139277037,
          -791.88833443707,
          -35.830582786369
        ],
        "ImageType": [
          "ORIGINAL",
          "PRIMARY",
          "M",
          "ND",
          "ECHO_00",
          "MOSAIC"
        ],
        "ImagedNucleus": "1H",
        "ImagingFrequency": 297.204991,
        "InPlanePhaseEncodingDirection": "ROW",
        "LargestImagePixelValue": 4095,
        "MRAcquisitionType": "2D",
        "MagneticFieldStrength": 6.98,
        "Manufacturer": "SIEMENS",
        "ManufacturerModelName": "Investigational_Device_7T",
        "Modality": "MR",
        "NumberOfAverages": 1.0,
        "NumberOfPhaseEncodingSteps": 94,
        "PercentPhaseFieldOfView": 100.0,
        "PercentSampling": 100.0,
        "PerformedProcedureStepStartTime": "130113.462000",
        "PhotometricInterpretation": "MONOCHROME2",
        "PixelBandwidth": 2003.0,
        "PixelRepresentation": 0,
        "PixelSpacing": [
          2.0,
          2.0
        ],
        "PositionReferenceIndicator": "",
        "ProcedureCodeSequence": [
          {
            "CodeMeaning": "MRI Procedure Limited",
            "CodeValue": "MI01491",
            "CodingSchemeDesignator": "USA Standard",
            "ContextIdentifier": "4000112203"
          }
        ],
        "ProtocolName": "NIH_EPI_2.0iso_TR2_Run04",
        "ReferencedStudySequence": [
          {
            "ReferencedSOPClassUID": "1.2.840.10008.3.1.2.3.1",
            "ReferencedSOPInstanceUID": "1.2.840.113564.9.1.2723958737.61.2.5000078010"
          }
        ],
        "RepetitionTime": 2000.0,
        "RequestedProcedureCodeSequence": [
          {
            "CodeMeaning": "MRI Procedure Limited",
            "CodeValue": "MI01491",
            "CodingSchemeDesignator": "USA Standard",
            "ContextIdentifier": "4000112203"
          }
        ],
        "RequestingService": "MHMI",
        "Rows": 768,
        "SAR": 0.09036795682303,
        "SamplesPerPixel": 1,
        "ScanningSequence": "EP",
        "SequenceName": "epfid2d1_96",
        "SequenceVariant": "SK",
        "SeriesDescription": "NIH_EPI_2.0iso_TR2_Run04",
        "SeriesNumber": 9,
        "SliceLocation": -36.78781076192,
        "SliceThickness": 2.0,
        "SmallestImagePixelValue": 0,
        "SoftwareVersions": "syngo MR B17",
        "SpacingBetweenSlices": 1.9999999356774,
        "TransmitCoilName": "32Ch_Head_7T",
        "VariableFlipAngleFlag": "N",
        "WindowCenterWidthExplanation": "Algo1",
        "dBdt": 0.0
      },
      "slices": {}
    },
    "modality": "bold",
    "run_id": 6,
    "session_id": "03",
    "subject_id": "003",
    "task_id": "FullFovAttentionTask",
    "time": {
      "samples": {
        "AcquisitionNumber": [
          1,
          2,
          3,
          4,
          5,
          6,
          7,
          8,
          9,
          10,
          11,
          12,
          13,
          14,
          15,
          16,
          17,
          18,
          19,
          20,
          21,
          22,
          23,
          24,
          25,
          26,
          27,
          28,
          29,
          30,
          31,
          32,
          33,
          34,
          35,
          36,
          37,
          38,
          39,
          40,
          41,
          42,
          43,
          44,
          45,
          46,
          47,
          48,
          49,
          50,
          51,
          52,
          53,
          54,
          55,
          56,
          57,
          58,
          59,
          60,
          61,
          62,
          63,
          64,
          65,
          66,
          67,
          68,
          69,
          70,
          71,
          72,
          73,
          74,
          75,
          76,
          77,
          78,
          79,
          80,
          81,
          82,
          83,
          84,
          85,
          86,
          87,
          88,
          89,
          90,
          91,
          92,
          93,
          94,
          95,
          96,
          97,
          98,
          99,
          100,
          101,
          102,
          103,
          104,
          105,
          106,
          107,
          108,
          109,
          110,
          111,
          112,
          113,
          114,
          115,
          116,
          117,
          118,
          119,
          120,
          121,
          122,
          123,
          124,
          125,
          126,
          127,
          128,
          129,
          130,
          131,
          132,
          133,
          134,
          135,
          136,
          137,
          138,
          139,
          140,
          141,
          142,
          143,
          144,
          145,
          146,
          147,
          148,
          149,
          150,
          151,
          152,
          153,
          154,
          155,
          156,
          157,
          158,
          159,
          160,
          161,
          162,
          163,
          164
        ],
        "AcquisitionTime": [
          "135137.395000",
          "135141.412500",
          "135143.420000",
          "135145.427500",
          "135147.435000",
          "135149.445000",
          "135151.452500",
          "135153.460000",
          "135155.467500",
          "135157.475000",
          "135159.485000",
          "135201.492500",
          "135203.500000",
          "135205.507500",
          "135207.517500",
          "135209.525000",
          "135211.532500",
          "135213.540000",
          "135215.547500",
          "135217.557500",
          "135219.565000",
          "135221.572500",
          "135223.580000",
          "135225.587500",
          "135227.597500",
          "135229.605000",
          "135231.612500",
          "135233.620000",
          "135235.630000",
          "135237.637500",
          "135239.645000",
          "135241.652500",
          "135243.660000",
          "135245.670000",
          "135247.677500",
          "135249.685000",
          "135251.692500",
          "135253.700000",
          "135255.710000",
          "135257.717500",
          "135259.725000",
          "135301.732500",
          "135303.740000",
          "135305.750000",
          "135307.757500",
          "135309.765000",
          "135311.772500",
          "135313.782500",
          "135315.790000",
          "135317.797500",
          "135319.805000",
          "135321.812500",
          "135323.822500",
          "135325.830000",
          "135327.837500",
          "135329.845000",
          "135331.852500",
          "135333.862500",
          "135335.870000",
          "135337.877500",
          "135339.885000",
          "135341.895000",
          "135343.902500",
          "135345.910000",
          "135347.917500",
          "135349.925000",
          "135351.935000",
          "135353.942500",
          "135355.950000",
          "135357.957500",
          "135359.965000",
          "135401.975000",
          "135403.982500",
          "135405.990000",
          "135407.997500",
          "135410.007500",
          "135412.015000",
          "135414.022500",
          "135416.030000",
          "135418.037500",
          "135420.047500",
          "135422.055000",
          "135424.062500",
          "135426.070000",
          "135428.077500",
          "135430.087500",
          "135432.095000",
          "135434.102500",
          "135436.110000",
          "135438.117500",
          "135440.127500",
          "135442.135000",
          "135444.142500",
          "135446.150000",
          "135448.160000",
          "135450.167500",
          "135452.175000",
          "135454.182500",
          "135456.190000",
          "135458.200000",
          "135500.207500",
          "135502.215000",
          "135504.222500",
          "135506.230000",
          "135508.240000",
          "135510.247500",
          "135512.255000",
          "135514.262500",
          "135516.272500",
          "135518.280000",
          "135520.287500",
          "135522.295000",
          "135524.302500",
          "135526.312500",
          "135528.320000",
          "135530.327500",
          "135532.335000",
          "135534.342500",
          "135536.352500",
          "135538.360000",
          "135540.367500",
          "135542.375000",
          "135544.385000",
          "135546.392500",
          "135548.400000",
          "135550.407500",
          "135552.415000",
          "135554.425000",
          "135556.432500",
          "135558.440000",
          "135600.447500",
          "135602.455000",
          "135604.465000",
          "135606.472500",
          "135608.480000",
          "135610.487500",
          "135612.495000",
          "135614.505000",
          "135616.512500",
          "135618.520000",
          "135620.527500",
          "135622.537500",
          "135624.545000",
          "135626.552500",
          "135628.560000",
          "135630.567500",
          "135632.577500",
          "135634.585000",
          "135636.592500",
          "135638.600000",
          "135640.607500",
          "135642.617500",
          "135644.625000",
          "135646.632500",
          "135648.640000",
          "135650.650000",
          "135652.657500",
          "135654.665000",
          "135656.672500",
          "135658.680000",
          "135700.690000",
          "135702.697500",
          "135704.705000",
          "135706.712500"
        ],
        "ContentTime": [
          "135221.352000",
          "135221.352000",
          "135221.352000",
          "135221.352000",
          "135221.352000",
          "135221.368000",
          "135221.383000",
          "135221.383000",
          "135221.383000",
          "135221.383000",
          "135221.383000",
          "135221.383000",
          "135221.383000",
          "135221.399000",
          "135221.399000",
          "135221.399000",
          "135221.399000",
          "135221.399000",
          "135221.399000",
          "135221.399000",
          "135221.415000",
          "135301.337000",
          "135301.337000",
          "135301.337000",
          "135301.337000",
          "135301.337000",
          "135301.352000",
          "135301.352000",
          "135301.352000",
          "135301.352000",
          "135301.352000",
          "135301.352000",
          "135301.352000",
          "135301.368000",
          "135301.368000",
          "135301.368000",
          "135301.368000",
          "135301.368000",
          "135301.383000",
          "135301.383000",
          "135301.383000",
          "135341.337000",
          "135341.337000",
          "135341.337000",
          "135341.337000",
          "135341.337000",
          "135341.352000",
          "135341.352000",
          "135341.352000",
          "135341.352000",
          "135341.352000",
          "135341.352000",
          "135341.352000",
          "135341.368000",
          "135341.368000",
          "135341.368000",
          "135341.368000",
          "135341.383000",
          "135341.383000",
          "135341.383000",
          "135341.383000",
          "135421.337000",
          "135421.337000",
          "135421.337000",
          "135421.337000",
          "135421.337000",
          "135421.352000",
          "135421.352000",
          "135421.352000",
          "135421.352000",
          "135421.352000",
          "135421.352000",
          "135421.352000",
          "135421.368000",
          "135421.368000",
          "135421.368000",
          "135421.368000",
          "135421.368000",
          "135421.368000",
          "135421.383000",
          "135421.383000",
          "135501.337000",
          "135501.337000",
          "135501.337000",
          "135501.337000",
          "135501.352000",
          "135501.368000",
          "135501.368000",
          "135501.368000",
          "135501.368000",
          "135501.368000",
          "135501.368000",
          "135501.383000",
          "135501.383000",
          "135501.383000",
          "135501.383000",
          "135501.383000",
          "135501.399000",
          "135501.399000",
          "135501.399000",
          "135501.399000",
          "135541.337000",
          "135541.337000",
          "135541.337000",
          "135541.337000",
          "135541.337000",
          "135541.352000",
          "135541.352000",
          "135541.352000",
          "135541.352000",
          "135541.352000",
          "135541.352000",
          "135541.352000",
          "135541.368000",
          "135541.368000",
          "135541.368000",
          "135541.368000",
          "135541.368000",
          "135541.368000",
          "135541.383000",
          "135541.383000",
          "135621.337000",
          "135621.337000",
          "135621.337000",
          "135621.337000",
          "135621.337000",
          "135621.352000",
          "135621.352000",
          "135621.352000",
          "135621.352000",
          "135621.352000",
          "135621.352000",
          "135621.352000",
          "135621.368000",
          "135621.368000",
          "135621.368000",
          "135621.368000",
          "135621.368000",
          "135621.368000",
          "135621.383000",
          "135621.383000",
          "135701.337000",
          "135701.337000",
          "135701.337000",
          "135701.337000",
          "135701.337000",
          "135701.352000",
          "135701.352000",
          "135701.352000",
          "135701.352000",
          "135701.368000",
          "135701.368000",
          "135701.368000",
          "135701.368000",
          "135701.368000",
          "135701.368000",
          "135701.368000",
          "135701.383000",
          "135701.383000",
          "135701.383000",
          "135701.383000",
          "135706.930000",
          "135706.930000",
          "135706.946000"
        ],
        "InstanceCreationTime": [
          "135221.352000",
          "135221.352000",
          "135221.352000",
          "135221.352000",
          "135221.352000",
          "135221.368000",
          "135221.383000",
          "135221.383000",
          "135221.383000",
          "135221.383000",
          "135221.383000",
          "135221.383000",
          "135221.383000",
          "135221.399000",
          "135221.399000",
          "135221.399000",
          "135221.399000",
          "135221.399000",
          "135221.399000",
          "135221.399000",
          "135221.415000",
          "135301.337000",
          "135301.337000",
          "135301.337000",
          "135301.337000",
          "135301.337000",
          "135301.352000",
          "135301.352000",
          "135301.352000",
          "135301.352000",
          "135301.352000",
          "135301.352000",
          "135301.352000",
          "135301.368000",
          "135301.368000",
          "135301.368000",
          "135301.368000",
          "135301.368000",
          "135301.383000",
          "135301.383000",
          "135301.383000",
          "135341.337000",
          "135341.337000",
          "135341.337000",
          "135341.337000",
          "135341.337000",
          "135341.352000",
          "135341.352000",
          "135341.352000",
          "135341.352000",
          "135341.352000",
          "135341.352000",
          "135341.352000",
          "135341.368000",
          "135341.368000",
          "135341.368000",
          "135341.368000",
          "135341.383000",
          "135341.383000",
          "135341.383000",
          "135341.383000",
          "135421.337000",
          "135421.337000",
          "135421.337000",
          "135421.337000",
          "135421.337000",
          "135421.352000",
          "135421.352000",
          "135421.352000",
          "135421.352000",
          "135421.352000",
          "135421.352000",
          "135421.352000",
          "135421.368000",
          "135421.368000",
          "135421.368000",
          "135421.368000",
          "135421.368000",
          "135421.368000",
          "135421.383000",
          "135421.383000",
          "135501.337000",
          "135501.337000",
          "135501.337000",
          "135501.337000",
          "135501.352000",
          "135501.368000",
          "135501.368000",
          "135501.368000",
          "135501.368000",
          "135501.368000",
          "135501.368000",
          "135501.383000",
          "135501.383000",
          "135501.383000",
          "135501.383000",
          "135501.383000",
          "135501.399000",
          "135501.399000",
          "135501.399000",
          "135501.399000",
          "135541.337000",
          "135541.337000",
          "135541.337000",
          "135541.337000",
          "135541.337000",
          "135541.352000",
          "135541.352000",
          "135541.352000",
          "135541.352000",
          "135541.352000",
          "135541.352000",
          "135541.352000",
          "135541.368000",
          "135541.368000",
          "135541.368000",
          "135541.368000",
          "135541.368000",
          "135541.368000",
          "135541.383000",
          "135541.383000",
          "135621.337000",
          "135621.337000",
          "135621.337000",
          "135621.337000",
          "135621.337000",
          "135621.352000",
          "135621.352000",
          "135621.352000",
          "135621.352000",
          "135621.352000",
          "135621.352000",
          "135621.352000",
          "135621.368000",
          "135621.368000",
          "135621.368000",
          "135621.368000",
          "135621.368000",
          "135621.368000",
          "135621.383000",
          "135621.383000",
          "135701.337000",
          "135701.337000",
          "135701.337000",
          "135701.337000",
          "135701.337000",
          "135701.352000",
          "135701.352000",
          "135701.352000",
          "135701.352000",
          "135701.368000",
          "135701.368000",
          "135701.368000",
          "135701.368000",
          "135701.368000",
          "135701.368000",
          "135701.368000",
          "135701.383000",
          "135701.383000",
          "135701.383000",
          "135701.383000",
          "135706.930000",
          "135706.930000",
          "135706.946000"
        ],
        "InstanceNumber": [
          1,
          2,
          3,
          4,
          5,
          6,
          7,
          8,
          9,
          10,
          11,
          12,
          13,
          14,
          15,
          16,
          17,
          18,
          19,
          20,
          21,
          22,
          23,
          24,
          25,
          26,
          27,
          28,
          29,
          30,
          31,
          32,
          33,
          34,
          35,
          36,
          37,
          38,
          39,
          40,
          41,
          42,
          43,
          44,
          45,
          46,
          47,
          48,
          49,
          50,
          51,
          52,
          53,
          54,
          55,
          56,
          57,
          58,
          59,
          60,
          61,
          62,
          63,
          64,
          65,
          66,
          67,
          68,
          69,
          70,
          71,
          72,
          73,
          74,
          75,
          76,
          77,
          78,
          79,
          80,
          81,
          82,
          83,
          84,
          85,
          86,
          87,
          88,
          89,
          90,
          91,
          92,
          93,
          94,
          95,
          96,
          97,
          98,
          99,
          100,
          101,
          102,
          103,
          104,
          105,
          106,
          107,
          108,
          109,
          110,
          111,
          112,
          113,
          114,
          115,
          116,
          117,
          118,
          119,
          120,
          121,
          122,
          123,
          124,
          125,
          126,
          127,
          128,
          129,
          130,
          131,
          132,
          133,
          134,
          135,
          136,
          137,
          138,
          139,
          140,
          141,
          142,
          143,
          144,
          145,
          146,
          147,
          148,
          149,
          150,
          151,
          152,
          153,
          154,
          155,
          156,
          157,
          158,
          159,
          160,
          161,
          162,
          163,
          164
        ],
        "WindowCenter": [
          944.0,
          945.0,
          945.0,
          947.0,
          946.0,
          946.0,
          944.0,
          944.0,
          945.0,
          945.0,
          945.0,
          945.0,
          944.0,
          946.0,
          946.0,
          946.0,
          946.0,
          945.0,
          945.0,
          947.0,
          946.0,
          945.0,
          944.0,
          944.0,
          944.0,
          945.0,
          945.0,
          946.0,
          946.0,
          946.0,
          946.0,
          945.0,
          944.0,
          945.0,
          944.0,
          944.0,
          945.0,
          945.0,
          945.0,
          945.0,
          945.0,
          947.0,
          948.0,
          947.0,
          946.0,
          945.0,
          945.0,
          945.0,
          946.0,
          945.0,
          945.0,
          946.0,
          945.0,
          945.0,
          946.0,
          945.0,
          947.0,
          946.0,
          946.0,
          945.0,
          945.0,
          945.0,
          944.0,
          944.0,
          945.0,
          946.0,
          945.0,
          945.0,
          945.0,
          944.0,
          945.0,
          945.0,
          944.0,
          944.0,
          945.0,
          945.0,
          946.0,
          946.0,
          946.0,
          945.0,
          945.0,
          947.0,
          947.0,
          948.0,
          946.0,
          946.0,
          944.0,
          945.0,
          945.0,
          945.0,
          945.0,
          944.0,
          944.0,
          946.0,
          947.0,
          946.0,
          947.0,
          947.0,
          946.0,
          945.0,
          945.0,
          944.0,
          945.0,
          945.0,
          946.0,
          947.0,
          946.0,
          947.0,
          947.0,
          947.0,
          948.0,
          946.0,
          945.0,
          944.0,
          945.0,
          944.0,
          942.0,
          943.0,
          943.0,
          946.0,
          946.0,
          945.0,
          946.0,
          946.0,
          945.0,
          947.0,
          947.0,
          945.0,
          946.0,
          947.0,
          947.0,
          947.0,
          947.0,
          946.0,
          946.0,
          946.0,
          945.0,
          946.0,
          947.0,
          946.0,
          945.0,
          947.0,
          949.0,
          949.0,
          948.0,
          948.0,
          947.0,
          947.0,
          947.0,
          946.0,
          947.0,
          948.0,
          947.0,
          946.0,
          946.0,
          947.0,
          946.0,
          946.0,
          946.0,
          947.0,
          948.0,
          950.0,
          950.0,
          947.0
        ],
        "WindowWidth": [
          2546.0,
          2550.0,
          2553.0,
          2557.0,
          2549.0,
          2541.0,
          2540.0,
          2551.0,
          2553.0,
          2543.0,
          2541.0,
          2546.0,
          2559.0,
          2566.0,
          2557.0,
          2548.0,
          2542.0,
          2541.0,
          2549.0,
          2547.0,
          2548.0,
          2543.0,
          2534.0,
          2533.0,
          2538.0,
          2540.0,
          2544.0,
          2546.0,
          2550.0,
          2550.0,
          2544.0,
          2544.0,
          2543.0,
          2544.0,
          2545.0,
          2546.0,
          2559.0,
          2558.0,
          2549.0,
          2551.0,
          2558.0,
          2572.0,
          2574.0,
          2560.0,
          2546.0,
          2539.0,
          2543.0,
          2544.0,
          2543.0,
          2545.0,
          2544.0,
          2543.0,
          2547.0,
          2544.0,
          2547.0,
          2552.0,
          2552.0,
          2552.0,
          2554.0,
          2551.0,
          2545.0,
          2543.0,
          2541.0,
          2546.0,
          2556.0,
          2555.0,
          2549.0,
          2549.0,
          2548.0,
          2547.0,
          2551.0,
          2547.0,
          2540.0,
          2540.0,
          2544.0,
          2544.0,
          2545.0,
          2549.0,
          2548.0,
          2549.0,
          2557.0,
          2565.0,
          2562.0,
          2554.0,
          2548.0,
          2534.0,
          2534.0,
          2541.0,
          2543.0,
          2542.0,
          2540.0,
