{
  "aor": 0.00435390243902439,
  "aqi": 0.01154790036585366,
  "bids_meta": {
    "AcquisitionMatrixPE": 96,
    "AcquisitionNumber": 1,
    "AcquisitionTime": "14:04:28.837500",
    "BandwidthPerPixelPhaseEncode": 52.083,
    "BaseResolution": 96,
    "BodyPartExamined": "HEAD",
    "ConversionSoftware": "dcm2niix",
    "ConversionSoftwareVersion": "v1.0.20180622 GCC6.3.0",
    "DerivedVendorReportedEchoSpacing": 0.000600004,
    "DeviceSerialNumber": "18926",
    "DwellTime": 2.6e-06,
    "EchoTime": 0.025,
    "EffectiveEchoSpacing": 0.000200001,
    "FlipAngle": 50,
    "ImageOrientationPatientDICOM": [
      0.999992,
      2.12957e-05,
      0.00410407,
      2.05498e-10,
      0.999987,
      -0.00518891
    ],
    "ImageType": [
      "ORIGINAL",
      "PRIMARY",
      "M",
      "ND",
      "ECHO",
      "00",
      "MOSAIC"
    ],
    "InPlanePhaseEncodingDirectionDICOM": "ROW",
    "InstitutionName": "NIMH",
    "InstitutionalDepartmentName": "Department",
    "MRAcquisitionType": "2D",
    "MagneticFieldStrength": 6.98,
    "Manufacturer": "Siemens",
    "ManufacturersModelName": "Investigational_Device_7T",
    "Modality": "MR",
    "ParallelReductionFactorInPlane": 3,
    "PartialFourier": 1,
    "PatientPosition": "HFS",
    "PercentPhaseFOV": 100,
    "PhaseEncodingDirection": "i",
    "PhaseEncodingSteps": 94,
    "PhaseResolution": 1,
    "PixelBandwidth": 2003,
    "ProcedureStepDescription": "MRI_Procedure_Limited",
    "ProtocolName": "NIH_EPI_2.0iso_TR2_Run06",
    "PulseSequenceDetails": "%CustomerSeq%_inati_nih_epi",
    "ReceiveCoilName": "32Ch_Head_7T",
    "ReconMatrixPE": 96,
    "RepetitionTime": 2,
    "SAR": 0.090368,
    "ScanningSequence": "EP",
    "SequenceName": "epfid2d1_96",
    "SequenceVariant": "SK",
    "SeriesDescription": "NIH_EPI_2.0iso_TR2_Run06",
    "SeriesNumber": 11,
    "ShimSetting": [
      -74,
      143,
      1102,
      2258,
      -61,
      565,
      252,
      -378
    ],
    "SliceThickness": 2,
    "SliceTiming": [
      1.0025,
      0,
      1.04,
      0.0375,
      1.0775,
      0.0725,
      1.115,
      0.11,
      1.1525,
      0.1475,
      1.19,
      0.185,
      1.2275,
      0.2225,
      1.2625,
      0.26,
      1.3,
      0.2975,
      1.3375,
      0.335,
      1.375,
      0.37,
      1.4125,
      0.4075,
      1.45,
      0.445,
      1.4875,
      0.4825,
      1.5225,
      0.52,
      1.56,
      0.5575,
      1.5975,
      0.595,
      1.635,
      0.6325,
      1.6725,
      0.6675,
      1.71,
      0.705,
      1.7475,
      0.7425,
      1.785,
      0.78,
      1.82,
      0.8175,
      1.8575,
      0.855,
      1.895,
      0.8925,
      1.9325,
      0.93,
      1.97,
      0.965
    ],
    "SoftwareVersions": "syngo_MR_B17",
    "SpacingBetweenSlices": 2,
    "StationName": "FMRIFD7T",
    "TaskName": "FullFovAttentionTask",
    "TotalReadoutTime": 0.0190001,
    "TxRefAmp": 277,
    "dataset": "ds001555",
    "dcmmeta_affine": [
      [
        -1.9999831914901733,
        4.1099659786603127e-10,
        0.008208253420889378,
        95.76705169677734
      ],
      [
        -4.259147317497991e-05,
        1.9999730587005615,
        -0.010377731174230576,
        -70.11437225341797
      ],
      [
        0.008208143524825573,
        0.01037781871855259,
        1.9999561309814453,
        -37.54548645019531
      ],
      [
        0.0,
        0.0,
        0.0,
        1.0
      ]
    ],
    "dcmmeta_reorient_transform": [
      [
        0.0,
        -1.0,
        0.0,
        95.0
      ],
      [
        1.0,
        0.0,
        0.0,
        0.0
      ],
      [
        0.0,
        0.0,
        1.0,
        0.0
      ],
      [
        0.0,
        0.0,
        0.0,
        1.0
      ]
    ],
    "dcmmeta_shape": [
      96,
      96,
      54,
      164
    ],
    "dcmmeta_slice_dim": 2,
    "dcmmeta_version": 0.6,
    "global": {
      "const": {
        "AcquisitionMatrix": [
          0,
          96,
          96,
          0
        ],
        "Allergies": "No Known Allergies",
        "AngioFlag": "N",
        "BitsAllocated": 16,
        "BitsStored": 12,
        "BodyPartExamined": "HEAD",
        "Columns": 768,
        "EchoNumbers": 1,
        "EchoTime": 25.0,
        "EchoTrainLength": 1,
        "FlipAngle": 50.0,
        "HighBit": 11,
        "ImageOrientationPatient": [
          0.9999915780361,
          2.129573671e-05,
          0.00410407156009,
          2.054983e-10,
          0.99998653751898,
          -0.0051889094043
        ],
        "ImagePositionPatient": [
          -767.76139277037,
          -791.88833443707,
          -35.830582786369
        ],
        "ImageType": [
          "ORIGINAL",
          "PRIMARY",
          "M",
          "ND",
          "ECHO_00",
          "MOSAIC"
        ],
        "ImagedNucleus": "1H",
        "ImagingFrequency": 297.20504,
        "InPlanePhaseEncodingDirection": "ROW",
        "LargestImagePixelValue": 4095,
        "MRAcquisitionType": "2D",
        "MagneticFieldStrength": 6.98,
        "Manufacturer": "SIEMENS",
        "ManufacturerModelName": "Investigational_Device_7T",
        "Modality": "MR",
        "NumberOfAverages": 1.0,
        "NumberOfPhaseEncodingSteps": 94,
        "PercentPhaseFieldOfView": 100.0,
        "PercentSampling": 100.0,
        "PerformedProcedureStepStartTime": "130113.462000",
        "PhotometricInterpretation": "MONOCHROME2",
        "PixelBandwidth": 2003.0,
        "PixelRepresentation": 0,
        "PixelSpacing": [
          2.0,
          2.0
        ],
        "PositionReferenceIndicator": "",
        "ProcedureCodeSequence": [
          {
            "CodeMeaning": "MRI Procedure Limited",
            "CodeValue": "MI01491",
            "CodingSchemeDesignator": "USA Standard",
            "ContextIdentifier": "4000112203"
          }
        ],
        "ProtocolName": "NIH_EPI_2.0iso_TR2_Run06",
        "ReferencedStudySequence": [
          {
            "ReferencedSOPClassUID": "1.2.840.10008.3.1.2.3.1",
            "ReferencedSOPInstanceUID": "1.2.840.113564.9.1.2723958737.61.2.5000078010"
          }
        ],
        "RepetitionTime": 2000.0,
        "RequestedProcedureCodeSequence": [
          {
            "CodeMeaning": "MRI Procedure Limited",
            "CodeValue": "MI01491",
            "CodingSchemeDesignator": "USA Standard",
            "ContextIdentifier": "4000112203"
          }
        ],
        "RequestingService": "MHMI",
        "Rows": 768,
        "SAR": 0.09036795682303,
        "SamplesPerPixel": 1,
        "ScanningSequence": "EP",
        "SequenceName": "epfid2d1_96",
        "SequenceVariant": "SK",
        "SeriesDescription": "NIH_EPI_2.0iso_TR2_Run06",
        "SeriesNumber": 11,
        "SliceLocation": -36.78781076192,
        "SliceThickness": 2.0,
        "SmallestImagePixelValue": 0,
        "SoftwareVersions": "syngo MR B17",
        "SpacingBetweenSlices": 1.9999999356774,
        "TransmitCoilName": "32Ch_Head_7T",
        "VariableFlipAngleFlag": "N",
        "WindowCenterWidthExplanation": "Algo1",
        "dBdt": 0.0
      },
      "slices": {}
    },
    "modality": "bold",
    "run_id": 8,
    "session_id": "03",
    "subject_id": "003",
    "task_id": "FullFovAttentionTask",
    "time": {
      "samples": {
        "AcquisitionNumber": [
          1,
          2,
          3,
          4,
          5,
          6,
          7,
          8,
          9,
          10,
          11,
          12,
          13,
          14,
          15,
          16,
          17,
          18,
          19,
          20,
          21,
          22,
          23,
          24,
          25,
          26,
          27,
          28,
          29,
          30,
          31,
          32,
          33,
          34,
          35,
          36,
          37,
          38,
          39,
          40,
          41,
          42,
          43,
          44,
          45,
          46,
          47,
          48,
          49,
          50,
          51,
          52,
          53,
          54,
          55,
          56,
          57,
          58,
          59,
          60,
          61,
          62,
          63,
          64,
          65,
          66,
          67,
          68,
          69,
          70,
          71,
          72,
          73,
          74,
          75,
          76,
          77,
          78,
          79,
          80,
          81,
          82,
          83,
          84,
          85,
          86,
          87,
          88,
          89,
          90,
          91,
          92,
          93,
          94,
          95,
          96,
          97,
          98,
          99,
          100,
          101,
          102,
          103,
          104,
          105,
          106,
          107,
          108,
          109,
          110,
          111,
          112,
          113,
          114,
          115,
          116,
          117,
          118,
          119,
          120,
          121,
          122,
          123,
          124,
          125,
          126,
          127,
          128,
          129,
          130,
          131,
          132,
          133,
          134,
          135,
          136,
          137,
          138,
          139,
          140,
          141,
          142,
          143,
          144,
          145,
          146,
          147,
          148,
          149,
          150,
          151,
          152,
          153,
          154,
          155,
          156,
          157,
          158,
          159,
          160,
          161,
          162,
          163,
          164
        ],
        "AcquisitionTime": [
          "140428.837500",
          "140432.855000",
          "140434.862500",
          "140436.870000",
          "140438.877500",
          "140440.887500",
          "140442.895000",
          "140444.902500",
          "140446.910000",
          "140448.917500",
          "140450.927500",
          "140452.935000",
          "140454.942500",
          "140456.950000",
          "140458.957500",
          "140500.967500",
          "140502.975000",
          "140504.982500",
          "140506.990000",
          "140509.000000",
          "140511.007500",
          "140513.015000",
          "140515.022500",
          "140517.030000",
          "140519.040000",
          "140521.047500",
          "140523.055000",
          "140525.062500",
          "140527.070000",
          "140529.080000",
          "140531.087500",
          "140533.095000",
          "140535.102500",
          "140537.112500",
          "140539.120000",
          "140541.127500",
          "140543.135000",
          "140545.142500",
          "140547.152500",
          "140549.160000",
          "140551.167500",
          "140553.175000",
          "140555.182500",
          "140557.192500",
          "140559.200000",
          "140601.207500",
          "140603.215000",
          "140605.222500",
          "140607.232500",
          "140609.240000",
          "140611.247500",
          "140613.255000",
          "140615.265000",
          "140617.272500",
          "140619.280000",
          "140621.287500",
          "140623.295000",
          "140625.305000",
          "140627.312500",
          "140629.320000",
          "140631.327500",
          "140633.335000",
          "140635.345000",
          "140637.352500",
          "140639.360000",
          "140641.367500",
          "140643.377500",
          "140645.385000",
          "140647.392500",
          "140649.400000",
          "140651.407500",
          "140653.417500",
          "140655.425000",
          "140657.432500",
          "140659.440000",
          "140701.447500",
          "140703.457500",
          "140705.465000",
          "140707.472500",
          "140709.480000",
          "140711.490000",
          "140713.497500",
          "140715.505000",
          "140717.512500",
          "140719.520000",
          "140721.530000",
          "140723.537500",
          "140725.545000",
          "140727.552500",
          "140729.560000",
          "140731.570000",
          "140733.577500",
          "140735.585000",
          "140737.592500",
          "140739.600000",
          "140741.610000",
          "140743.617500",
          "140745.625000",
          "140747.632500",
          "140749.642500",
          "140751.650000",
          "140753.657500",
          "140755.665000",
          "140757.672500",
          "140759.682500",
          "140801.690000",
          "140803.697500",
          "140805.705000",
          "140807.712500",
          "140809.722500",
          "140811.730000",
          "140813.737500",
          "140815.745000",
          "140817.755000",
          "140819.762500",
          "140821.770000",
          "140823.777500",
          "140825.785000",
          "140827.795000",
          "140829.802500",
          "140831.810000",
          "140833.817500",
          "140835.825000",
          "140837.835000",
          "140839.842500",
          "140841.850000",
          "140843.857500",
          "140845.867500",
          "140847.875000",
          "140849.882500",
          "140851.890000",
          "140853.897500",
          "140855.907500",
          "140857.915000",
          "140859.922500",
          "140901.930000",
          "140903.937500",
          "140905.947500",
          "140907.955000",
          "140909.962500",
          "140911.970000",
          "140913.980000",
          "140915.987500",
          "140917.995000",
          "140920.002500",
          "140922.010000",
          "140924.020000",
          "140926.027500",
          "140928.035000",
          "140930.042500",
          "140932.050000",
          "140934.060000",
          "140936.067500",
          "140938.075000",
          "140940.082500",
          "140942.090000",
          "140944.100000",
          "140946.107500",
          "140948.115000",
          "140950.122500",
          "140952.132500",
          "140954.140000",
          "140956.147500",
          "140958.155000"
        ],
        "ContentTime": [
          "140515.352000",
          "140515.368000",
          "140515.368000",
          "140515.368000",
          "140515.368000",
          "140515.368000",
          "140515.368000",
          "140515.383000",
          "140515.383000",
          "140515.383000",
          "140515.383000",
          "140515.383000",
          "140515.399000",
          "140515.399000",
          "140515.399000",
          "140515.415000",
          "140515.415000",
          "140515.415000",
          "140515.415000",
          "140515.415000",
          "140515.430000",
          "140515.430000",
          "140555.352000",
          "140555.352000",
          "140555.352000",
          "140555.352000",
          "140555.352000",
          "140555.368000",
          "140555.368000",
          "140555.368000",
          "140555.368000",
          "140555.368000",
          "140555.368000",
          "140555.383000",
          "140555.383000",
          "140555.383000",
          "140555.383000",
          "140555.399000",
          "140555.399000",
          "140555.399000",
          "140555.399000",
          "140555.399000",
          "140635.352000",
          "140635.352000",
          "140635.352000",
          "140635.352000",
          "140635.352000",
          "140635.368000",
          "140635.368000",
          "140635.368000",
          "140635.368000",
          "140635.368000",
          "140635.368000",
          "140635.368000",
          "140635.383000",
          "140635.383000",
          "140635.383000",
          "140635.383000",
          "140635.383000",
          "140635.383000",
          "140635.399000",
          "140635.399000",
          "140715.352000",
          "140715.352000",
          "140715.352000",
          "140715.352000",
          "140715.368000",
          "140715.368000",
          "140715.368000",
          "140715.368000",
          "140715.368000",
          "140715.368000",
          "140715.368000",
          "140715.383000",
          "140715.383000",
          "140715.383000",
          "140715.383000",
          "140715.383000",
          "140715.399000",
          "140715.399000",
          "140715.399000",
          "140715.399000",
          "140755.352000",
          "140755.352000",
          "140755.352000",
          "140755.368000",
          "140755.368000",
          "140755.368000",
          "140755.368000",
          "140755.383000",
          "140755.383000",
          "140755.383000",
          "140755.383000",
          "140755.383000",
          "140755.399000",
          "140755.399000",
          "140755.399000",
          "140755.399000",
          "140755.399000",
          "140755.415000",
          "140755.415000",
          "140755.415000",
          "140835.352000",
          "140835.352000",
          "140835.352000",
          "140835.352000",
          "140835.352000",
          "140835.368000",
          "140835.368000",
          "140835.368000",
          "140835.368000",
          "140835.368000",
          "140835.368000",
          "140835.383000",
          "140835.383000",
          "140835.383000",
          "140835.383000",
          "140835.383000",
          "140835.383000",
          "140835.399000",
          "140835.399000",
          "140835.399000",
          "140915.352000",
          "140915.352000",
          "140915.352000",
          "140915.352000",
          "140915.368000",
          "140915.368000",
          "140915.368000",
          "140915.368000",
          "140915.368000",
          "140915.383000",
          "140915.383000",
          "140915.383000",
          "140915.383000",
          "140915.383000",
          "140915.383000",
          "140915.399000",
          "140915.399000",
          "140915.399000",
          "140915.399000",
          "140915.399000",
          "140935.352000",
          "140935.352000",
          "140935.352000",
          "140935.352000",
          "140935.368000",
          "140935.368000",
          "140935.368000",
          "140935.368000",
          "140935.368000",
          "140935.368000",
          "140958.774000",
          "140958.790000",
          "140958.790000",
          "140958.790000",
          "140958.790000",
          "140958.805000",
          "140958.805000",
          "140958.805000",
          "140958.805000",
          "140958.805000",
          "140958.805000",
          "140958.805000"
        ],
        "InstanceCreationTime": [
          "140515.352000",
          "140515.368000",
          "140515.368000",
          "140515.368000",
          "140515.368000",
          "140515.368000",
          "140515.368000",
          "140515.383000",
          "140515.383000",
          "140515.383000",
          "140515.383000",
          "140515.383000",
          "140515.399000",
          "140515.399000",
          "140515.399000",
          "140515.415000",
          "140515.415000",
          "140515.415000",
          "140515.415000",
          "140515.415000",
          "140515.430000",
          "140515.430000",
          "140555.352000",
          "140555.352000",
          "140555.352000",
          "140555.352000",
          "140555.352000",
          "140555.368000",
          "140555.368000",
          "140555.368000",
          "140555.368000",
          "140555.368000",
          "140555.368000",
          "140555.383000",
          "140555.383000",
          "140555.383000",
          "140555.383000",
          "140555.399000",
          "140555.399000",
          "140555.399000",
          "140555.399000",
          "140555.399000",
          "140635.352000",
          "140635.352000",
          "140635.352000",
          "140635.352000",
          "140635.352000",
          "140635.368000",
          "140635.368000",
          "140635.368000",
          "140635.368000",
          "140635.368000",
          "140635.368000",
          "140635.368000",
          "140635.383000",
          "140635.383000",
          "140635.383000",
          "140635.383000",
          "140635.383000",
          "140635.383000",
          "140635.399000",
          "140635.399000",
          "140715.352000",
          "140715.352000",
          "140715.352000",
          "140715.352000",
          "140715.368000",
          "140715.368000",
          "140715.368000",
          "140715.368000",
          "140715.368000",
          "140715.368000",
          "140715.368000",
          "140715.383000",
          "140715.383000",
          "140715.383000",
          "140715.383000",
          "140715.383000",
          "140715.399000",
          "140715.399000",
          "140715.399000",
          "140715.399000",
          "140755.352000",
          "140755.352000",
          "140755.352000",
          "140755.368000",
          "140755.368000",
          "140755.368000",
          "140755.368000",
          "140755.383000",
          "140755.383000",
          "140755.383000",
          "140755.383000",
          "140755.383000",
          "140755.399000",
          "140755.399000",
          "140755.399000",
          "140755.399000",
          "140755.399000",
          "140755.415000",
          "140755.415000",
          "140755.415000",
          "140835.352000",
          "140835.352000",
          "140835.352000",
          "140835.352000",
          "140835.352000",
          "140835.368000",
          "140835.368000",
          "140835.368000",
          "140835.368000",
          "140835.368000",
          "140835.368000",
          "140835.383000",
          "140835.383000",
          "140835.383000",
          "140835.383000",
          "140835.383000",
          "140835.383000",
          "140835.399000",
          "140835.399000",
          "140835.399000",
          "140915.352000",
          "140915.352000",
          "140915.352000",
          "140915.352000",
          "140915.368000",
          "140915.368000",
          "140915.368000",
          "140915.368000",
          "140915.368000",
          "140915.383000",
          "140915.383000",
          "140915.383000",
          "140915.383000",
          "140915.383000",
          "140915.383000",
          "140915.399000",
          "140915.399000",
          "140915.399000",
          "140915.399000",
          "140915.399000",
          "140935.352000",
          "140935.352000",
          "140935.352000",
          "140935.352000",
          "140935.368000",
          "140935.368000",
          "140935.368000",
          "140935.368000",
          "140935.368000",
          "140935.368000",
          "140958.774000",
          "140958.790000",
          "140958.790000",
          "140958.790000",
          "140958.790000",
          "140958.805000",
          "140958.805000",
          "140958.805000",
          "140958.805000",
          "140958.805000",
          "140958.805000",
          "140958.805000"
        ],
        "InstanceNumber": [
          1,
          2,
          3,
          4,
          5,
          6,
          7,
          8,
          9,
          10,
          11,
          12,
          13,
          14,
          15,
          16,
          17,
          18,
          19,
          20,
          21,
          22,
          23,
          24,
          25,
          26,
          27,
          28,
          29,
          30,
          31,
          32,
          33,
          34,
          35,
          36,
          37,
          38,
          39,
          40,
          41,
          42,
          43,
          44,
          45,
          46,
          47,
          48,
          49,
          50,
          51,
          52,
          53,
          54,
          55,
          56,
          57,
          58,
          59,
          60,
          61,
          62,
          63,
          64,
          65,
          66,
          67,
          68,
          69,
          70,
          71,
          72,
          73,
          74,
          75,
          76,
          77,
          78,
          79,
          80,
          81,
          82,
          83,
          84,
          85,
          86,
          87,
          88,
          89,
          90,
          91,
          92,
          93,
          94,
          95,
          96,
          97,
          98,
          99,
          100,
          101,
          102,
          103,
          104,
          105,
          106,
          107,
          108,
          109,
          110,
          111,
          112,
          113,
          114,
          115,
          116,
          117,
          118,
          119,
          120,
          121,
          122,
          123,
          124,
          125,
          126,
          127,
          128,
          129,
          130,
          131,
          132,
          133,
          134,
          135,
          136,
          137,
          138,
          139,
          140,
          141,
          142,
          143,
          144,
          145,
          146,
          147,
          148,
          149,
          150,
          151,
          152,
          153,
          154,
          155,
          156,
          157,
          158,
          159,
          160,
          161,
          162,
          163,
          164
        ],
        "WindowCenter": [
          948.0,
          948.0,
          947.0,
          948.0,
          948.0,
          950.0,
          949.0,
          948.0,
          948.0,
          948.0,
          948.0,
          948.0,
          947.0,
          947.0,
          947.0,
          946.0,
          946.0,
          948.0,
          947.0,
          948.0,
          947.0,
          947.0,
          947.0,
          946.0,
          946.0,
          946.0,
          948.0,
          948.0,
          948.0,
          948.0,
          948.0,
          947.0,
          947.0,
          947.0,
          948.0,
          947.0,
          946.0,
          945.0,
          944.0,
          944.0,
          945.0,
          944.0,
          944.0,
          945.0,
          946.0,
          945.0,
          945.0,
          947.0,
          948.0,
          946.0,
          945.0,
          945.0,
          947.0,
          949.0,
          948.0,
          948.0,
          948.0,
          948.0,
          947.0,
          946.0,
          946.0,
          945.0,
          945.0,
          947.0,
          946.0,
          945.0,
          944.0,
          945.0,
          945.0,
          944.0,
          944.0,
          946.0,
          946.0,
          946.0,
          946.0,
          945.0,
          945.0,
          945.0,
          945.0,
          944.0,
          944.0,
          944.0,
          946.0,
          946.0,
          947.0,
          948.0,
          947.0,
          947.0,
          947.0,
          947.0,
          946.0,
          945.0,
          946.0,
          945.0,
          943.0,
          942.0,
          943.0,
          943.0,
          945.0,
          945.0,
          945.0,
          945.0,
          945.0,
          945.0,
          944.0,
          944.0,
          945.0,
          947.0,
          947.0,
          946.0,
          946.0,
          946.0,
          946.0,
          947.0,
          946.0,
          946.0,
          947.0,
          947.0,
          947.0,
          948.0,
          948.0,
          947.0,
          947.0,
          947.0,
          948.0,
          945.0,
          945.0,
          945.0,
          945.0,
          945.0,
          944.0,
          944.0,
          945.0,
          946.0,
          944.0,
          946.0,
          946.0,
          946.0,
          947.0,
          945.0,
          946.0,
          946.0,
          946.0,
          945.0,
          945.0,
          944.0,
          945.0,
          945.0,
          944.0,
          944.0,
          944.0,
          945.0,
          946.0,
          946.0,
          946.0,
          945.0,
          946.0,
          947.0,
          948.0,
          946.0,
          945.0,
          945.0,
          947.0,
          947.0
        ],
        "WindowWidth": [
          2558.0,
          2557.0,
          2558.0,
          2565.0,
          2574.0,
          2573.0,
          2566.0,
          2562.0,
          2561.0,
          2564.0,
          2564.0,
          2560.0,
          2552.0,
          2552.0,
          2554.0,
          2554.0,
          2556.0,
          2555.0,
          2555.0,
          2555.0,
          2555.0,
          2551.0,
          2544.0,
          2544.0,
          2546.0,
          2554.0,
          2564.0,
          2566.0,
          2570.0,
          2574.0,
          2565.0,
          2556.0,
          2549.0,
          2556.0,
          2553.0,
          2551.0,
          2546.0,
          2536.0,
          2536.0,
          2540.0,
          2537.0,
          2536.0,
          2545.0,
          2556.0,
          2553.0,
          2551.0,
          2558.0,
          2562.0,
          2553.0,
          2542.0,
          2542.0,
          2548.0,
          2558.0,
          2562.0,
          2564.0,
          2571.0,
          2570.0,
          2562.0,
          2553.0,
          2544.0,
          2539.0,
          2543.0,
          2555.0,
          2560.0,
          2554.0,
          2542.0,
          2540.0,
          2538.0,
          2537.0,
          2537.0,
          2541.0,
          2555.0,
          2562.0,
          2554.0,
          2544.0,
          2541.0,
          2543.0,
          2546.0,
          2541.0,
          2536.0,
          2539.0,
          2547.0,
          2554.0,
          2557.0,
          2564.0,
          2564.0,
          2565.0,
          2566.0,
          2560.0,
          2557.0,
          2547.0,
