{
  "aor": 0.002362621951219512,
  "aqi": 0.005029285792682928,
  "bids_meta": {
    "AcquisitionMatrixPE": 96,
    "AcquisitionNumber": 1,
    "AcquisitionTime": "19:15:21.595000",
    "BandwidthPerPixelPhaseEncode": 52.083,
    "BaseResolution": 96,
    "BodyPartExamined": "HEAD",
    "ConversionSoftware": "dcm2niix",
    "ConversionSoftwareVersion": "v1.0.20180622 GCC6.3.0",
    "DerivedVendorReportedEchoSpacing": 0.000600004,
    "DeviceSerialNumber": "18926",
    "DwellTime": 2.6e-06,
    "EchoTime": 0.025,
    "EffectiveEchoSpacing": 0.000200001,
    "FlipAngle": 50,
    "ImageOrientationPatientDICOM": [
      0.999992,
      0.000789945,
      0.00402739,
      2.04197e-10,
      0.981302,
      -0.192476
    ],
    "ImageType": [
      "ORIGINAL",
      "PRIMARY",
      "M",
      "ND",
      "ECHO",
      "00",
      "MOSAIC"
    ],
    "InPlanePhaseEncodingDirectionDICOM": "ROW",
    "InstitutionName": "NIMH",
    "InstitutionalDepartmentName": "Department",
    "MRAcquisitionType": "2D",
    "MagneticFieldStrength": 6.98,
    "Manufacturer": "Siemens",
    "ManufacturersModelName": "Investigational_Device_7T",
    "Modality": "MR",
    "ParallelReductionFactorInPlane": 3,
    "PartialFourier": 1,
    "PatientPosition": "HFS",
    "PercentPhaseFOV": 100,
    "PhaseEncodingDirection": "i",
    "PhaseEncodingSteps": 94,
    "PhaseResolution": 1,
    "PixelBandwidth": 2003,
    "ProcedureStepDescription": "MRI_Brain",
    "ProtocolName": "NIH_EPI_2.0iso_TR2_Run05",
    "PulseSequenceDetails": "%CustomerSeq%_inati_nih_epi",
    "ReceiveCoilName": "32Ch_Head_7T",
    "ReconMatrixPE": 96,
    "RepetitionTime": 2,
    "SAR": 0.0815459,
    "ScanningSequence": "EP",
    "SequenceName": "epfid2d1_96",
    "SequenceVariant": "SK",
    "SeriesDescription": "NIH_EPI_2.0iso_TR2_Run05",
    "SeriesNumber": 9,
    "ShimSetting": [
      -52,
      147,
      883,
      1279,
      -152,
      463,
      179,
      -443
    ],
    "SliceThickness": 2,
    "SliceTiming": [
      1.0025,
      0,
      1.04,
      0.0375,
      1.0775,
      0.075,
      1.115,
      0.11,
      1.1525,
      0.1475,
      1.19,
      0.185,
      1.2275,
      0.2225,
      1.2625,
      0.26,
      1.3,
      0.2975,
      1.3375,
      0.335,
      1.375,
      0.3725,
      1.4125,
      0.4075,
      1.45,
      0.445,
      1.4875,
      0.4825,
      1.525,
      0.52,
      1.56,
      0.5575,
      1.5975,
      0.595,
      1.635,
      0.6325,
      1.6725,
      0.67,
      1.71,
      0.705,
      1.7475,
      0.7425,
      1.785,
      0.78,
      1.8225,
      0.8175,
      1.8575,
      0.855,
      1.895,
      0.8925,
      1.9325,
      0.93,
      1.97,
      0.9675
    ],
    "SoftwareVersions": "syngo_MR_B17",
    "SpacingBetweenSlices": 2,
    "StationName": "FMRIFD7T",
    "TaskName": "HalfFovNoTask",
    "TotalReadoutTime": 0.0190001,
    "TxRefAmp": 326,
    "dataset": "ds001555",
    "dcmmeta_affine": [
      [
        -1.9999831914901733,
        4.0839379100710005e-10,
        0.008208253420889378,
        95.76705169677734
      ],
      [
        -0.0015798897948116064,
        1.9626034498214722,
        -0.38494834303855896,
        -56.340240478515625
      ],
      [
        0.008054773323237896,
        0.3849515914916992,
        1.9625868797302246,
        -42.00886535644531
      ],
      [
        0.0,
        0.0,
        0.0,
        1.0
      ]
    ],
    "dcmmeta_reorient_transform": [
      [
        0.0,
        -1.0,
        0.0,
        95.0
      ],
      [
        1.0,
        0.0,
        0.0,
        0.0
      ],
      [
        0.0,
        0.0,
        1.0,
        0.0
      ],
      [
        0.0,
        0.0,
        0.0,
        1.0
      ]
    ],
    "dcmmeta_shape": [
      96,
      96,
      54,
      164
    ],
    "dcmmeta_slice_dim": 2,
    "dcmmeta_version": 0.6,
    "global": {
      "const": {
        "AcquisitionMatrix": [
          0,
          96,
          96,
          0
        ],
        "Allergies": "No Known Allergies",
        "AngioFlag": "N",
        "BitsAllocated": 16,
        "BitsStored": 12,
        "BodyPartExamined": "HEAD",
        "Columns": 768,
        "EchoNumbers": 1,
        "EchoTime": 25.0,
        "EchoTrainLength": 1,
        "FlipAngle": 50.0,
        "HighBit": 11,
        "ImageOrientationPatient": [
          0.99999157803654,
          0.00078994487055,
          0.00402738663197,
          2.041969e-10,
          0.98130172034061,
          -0.1924758001842
        ],
        "ImagePositionPatient": [
          -767.7613927697,
          -790.07268519809,
          121.19887111008
        ],
        "ImageType": [
          "ORIGINAL",
          "PRIMARY",
          "M",
          "ND",
          "ECHO_00",
          "MOSAIC"
        ],
        "ImagedNucleus": "1H",
        "ImagingFrequency": 297.204893,
        "InPlanePhaseEncodingDirection": "ROW",
        "LargestImagePixelValue": 4095,
        "MRAcquisitionType": "2D",
        "MagneticFieldStrength": 6.98,
        "Manufacturer": "SIEMENS",
        "ManufacturerModelName": "Investigational_Device_7T",
        "Modality": "MR",
        "NumberOfAverages": 1.0,
        "NumberOfPhaseEncodingSteps": 94,
        "PercentPhaseFieldOfView": 100.0,
        "PercentSampling": 100.0,
        "PerformedProcedureStepStartTime": "183342.484000",
        "PhotometricInterpretation": "MONOCHROME2",
        "PixelBandwidth": 2003.0,
        "PixelRepresentation": 0,
        "PixelSpacing": [
          2.0,
          2.0
        ],
        "PositionReferenceIndicator": "",
        "ProcedureCodeSequence": [
          {
            "CodeMeaning": "MRI Brain",
            "CodeValue": "MI01417",
            "CodingSchemeDesignator": "USA Standard",
            "ContextIdentifier": "4000120207"
          }
        ],
        "ProtocolName": "NIH_EPI_2.0iso_TR2_Run05",
        "ReferencedStudySequence": [
          {
            "ReferencedSOPClassUID": "1.2.840.10008.3.1.2.3.1",
            "ReferencedSOPInstanceUID": "1.2.840.113564.9.1.2723958737.61.2.5000086038"
          }
        ],
        "RepetitionTime": 2000.0,
        "RequestedProcedureCodeSequence": [
          {
            "CodeMeaning": "MRI Brain",
            "CodeValue": "MI01417",
            "CodingSchemeDesignator": "USA Standard",
            "ContextIdentifier": "4000120207"
          }
        ],
        "RequestingService": "NIHM Molecular Imaging Branch",
        "Rows": 768,
        "SAR": 0.08154586538278,
        "SamplesPerPixel": 1,
        "ScanningSequence": "EP",
        "SequenceName": "epfid2d1_96",
        "SequenceVariant": "SK",
        "SeriesDescription": "NIH_EPI_2.0iso_TR2_Run05",
        "SeriesNumber": 9,
        "SliceLocation": -29.98594245138,
        "SliceThickness": 2.0,
        "SmallestImagePixelValue": 0,
        "SoftwareVersions": "syngo MR B17",
        "SpacingBetweenSlices": 1.9999999763491,
        "TransmitCoilName": "32Ch_Head_7T",
        "VariableFlipAngleFlag": "N",
        "WindowCenterWidthExplanation": "Algo1",
        "dBdt": 0.0
      },
      "slices": {}
    },
    "modality": "bold",
    "run_id": 6,
    "session_id": "07",
    "subject_id": "001",
    "task_id": "HalfFovNoTask",
    "time": {
      "samples": {
        "AcquisitionNumber": [
          1,
          2,
          3,
          4,
          5,
          6,
          7,
          8,
          9,
          10,
          11,
          12,
          13,
          14,
          15,
          16,
          17,
          18,
          19,
          20,
          21,
          22,
          23,
          24,
          25,
          26,
          27,
          28,
          29,
          30,
          31,
          32,
          33,
          34,
          35,
          36,
          37,
          38,
          39,
          40,
          41,
          42,
          43,
          44,
          45,
          46,
          47,
          48,
          49,
          50,
          51,
          52,
          53,
          54,
          55,
          56,
          57,
          58,
          59,
          60,
          61,
          62,
          63,
          64,
          65,
          66,
          67,
          68,
          69,
          70,
          71,
          72,
          73,
          74,
          75,
          76,
          77,
          78,
          79,
          80,
          81,
          82,
          83,
          84,
          85,
          86,
          87,
          88,
          89,
          90,
          91,
          92,
          93,
          94,
          95,
          96,
          97,
          98,
          99,
          100,
          101,
          102,
          103,
          104,
          105,
          106,
          107,
          108,
          109,
          110,
          111,
          112,
          113,
          114,
          115,
          116,
          117,
          118,
          119,
          120,
          121,
          122,
          123,
          124,
          125,
          126,
          127,
          128,
          129,
          130,
          131,
          132,
          133,
          134,
          135,
          136,
          137,
          138,
          139,
          140,
          141,
          142,
          143,
          144,
          145,
          146,
          147,
          148,
          149,
          150,
          151,
          152,
          153,
          154,
          155,
          156,
          157,
          158,
          159,
          160,
          161,
          162,
          163,
          164
        ],
        "AcquisitionTime": [
          "191521.595000",
          "191525.612500",
          "191527.620000",
          "191529.627500",
          "191531.635000",
          "191533.645000",
          "191535.652500",
          "191537.660000",
          "191539.667500",
          "191541.677500",
          "191543.685000",
          "191545.692500",
          "191547.700000",
          "191549.707500",
          "191551.717500",
          "191553.725000",
          "191555.732500",
          "191557.740000",
          "191559.747500",
          "191601.757500",
          "191603.765000",
          "191605.772500",
          "191607.780000",
          "191609.790000",
          "191611.797500",
          "191613.805000",
          "191615.812500",
          "191617.820000",
          "191619.830000",
          "191621.837500",
          "191623.845000",
          "191625.852500",
          "191627.860000",
          "191629.870000",
          "191631.877500",
          "191633.885000",
          "191635.892500",
          "191637.900000",
          "191639.910000",
          "191641.917500",
          "191643.925000",
          "191645.932500",
          "191647.942500",
          "191649.950000",
          "191651.957500",
          "191653.965000",
          "191655.972500",
          "191657.982500",
          "191659.990000",
          "191701.997500",
          "191704.005000",
          "191706.012500",
          "191708.022500",
          "191710.030000",
          "191712.037500",
          "191714.045000",
          "191716.055000",
          "191718.062500",
          "191720.070000",
          "191722.077500",
          "191724.085000",
          "191726.095000",
          "191728.102500",
          "191730.110000",
          "191732.117500",
          "191734.125000",
          "191736.135000",
          "191738.142500",
          "191740.150000",
          "191742.157500",
          "191744.167500",
          "191746.175000",
          "191748.182500",
          "191750.190000",
          "191752.197500",
          "191754.207500",
          "191756.215000",
          "191758.222500",
          "191800.230000",
          "191802.237500",
          "191804.247500",
          "191806.255000",
          "191808.262500",
          "191810.270000",
          "191812.277500",
          "191814.287500",
          "191816.295000",
          "191818.302500",
          "191820.310000",
          "191822.320000",
          "191824.327500",
          "191826.335000",
          "191828.342500",
          "191830.350000",
          "191832.360000",
          "191834.367500",
          "191836.375000",
          "191838.382500",
          "191840.390000",
          "191842.400000",
          "191844.407500",
          "191846.415000",
          "191848.422500",
          "191850.432500",
          "191852.440000",
          "191854.447500",
          "191856.455000",
          "191858.462500",
          "191900.472500",
          "191902.480000",
          "191904.487500",
          "191906.495000",
          "191908.502500",
          "191910.512500",
          "191912.520000",
          "191914.527500",
          "191916.535000",
          "191918.545000",
          "191920.552500",
          "191922.560000",
          "191924.567500",
          "191926.575000",
          "191928.585000",
          "191930.592500",
          "191932.600000",
          "191934.607500",
          "191936.615000",
          "191938.625000",
          "191940.632500",
          "191942.640000",
          "191944.647500",
          "191946.655000",
          "191948.665000",
          "191950.672500",
          "191952.680000",
          "191954.687500",
          "191956.697500",
          "191958.705000",
          "192000.712500",
          "192002.720000",
          "192004.727500",
          "192006.737500",
          "192008.745000",
          "192010.752500",
          "192012.760000",
          "192014.767500",
          "192016.777500",
          "192018.785000",
          "192020.792500",
          "192022.800000",
          "192024.810000",
          "192026.817500",
          "192028.825000",
          "192030.832500",
          "192032.840000",
          "192034.850000",
          "192036.857500",
          "192038.865000",
          "192040.872500",
          "192042.880000",
          "192044.890000",
          "192046.897500",
          "192048.905000",
          "192050.912500"
        ],
        "ContentTime": [
          "191608.406000",
          "191608.406000",
          "191608.421000",
          "191608.421000",
          "191608.421000",
          "191608.421000",
          "191608.421000",
          "191608.421000",
          "191608.421000",
          "191608.437000",
          "191608.437000",
          "191608.437000",
          "191608.437000",
          "191608.437000",
          "191608.437000",
          "191608.437000",
          "191608.453000",
          "191608.453000",
          "191608.453000",
          "191608.453000",
          "191608.453000",
          "191608.453000",
          "191648.390000",
          "191648.390000",
          "191648.390000",
          "191648.406000",
          "191648.406000",
          "191648.406000",
          "191648.406000",
          "191648.406000",
          "191648.406000",
          "191648.406000",
          "191648.421000",
          "191648.421000",
          "191648.421000",
          "191648.421000",
          "191648.421000",
          "191648.421000",
          "191648.421000",
          "191648.437000",
          "191648.437000",
          "191648.437000",
          "191728.390000",
          "191728.390000",
          "191728.390000",
          "191728.390000",
          "191728.406000",
          "191728.406000",
          "191728.406000",
          "191728.406000",
          "191728.406000",
          "191728.421000",
          "191728.421000",
          "191728.421000",
          "191728.421000",
          "191728.421000",
          "191728.437000",
          "191728.437000",
          "191728.437000",
          "191728.437000",
          "191728.437000",
          "191728.437000",
          "191808.390000",
          "191808.390000",
          "191808.390000",
          "191808.390000",
          "191808.406000",
          "191808.406000",
          "191808.406000",
          "191808.406000",
          "191808.406000",
          "191808.406000",
          "191808.421000",
          "191808.421000",
          "191808.421000",
          "191808.421000",
          "191808.421000",
          "191808.421000",
          "191808.437000",
          "191808.437000",
          "191808.437000",
          "191808.437000",
          "191848.390000",
          "191848.390000",
          "191848.390000",
          "191848.390000",
          "191848.406000",
          "191848.406000",
          "191848.406000",
          "191848.406000",
          "191848.406000",
          "191848.406000",
          "191848.406000",
          "191848.421000",
          "191848.421000",
          "191848.421000",
          "191848.421000",
          "191848.421000",
          "191848.421000",
          "191848.437000",
          "191848.437000",
          "191848.437000",
          "191928.390000",
          "191928.390000",
          "191928.390000",
          "191928.390000",
          "191928.406000",
          "191928.406000",
          "191928.406000",
          "191928.406000",
          "191928.406000",
          "191928.406000",
          "191928.406000",
          "191928.421000",
          "191928.421000",
          "191928.421000",
          "191928.421000",
          "191928.421000",
          "191928.421000",
          "191928.437000",
          "191928.437000",
          "191928.437000",
          "192008.390000",
          "192008.390000",
          "192008.390000",
          "192008.390000",
          "192008.406000",
          "192008.406000",
          "192008.406000",
          "192008.406000",
          "192008.406000",
          "192008.406000",
          "192008.421000",
          "192008.421000",
          "192008.421000",
          "192008.421000",
          "192008.421000",
          "192008.421000",
          "192008.421000",
          "192008.437000",
          "192008.437000",
          "192008.437000",
          "192048.390000",
          "192048.390000",
          "192048.390000",
          "192048.406000",
          "192048.406000",
          "192048.421000",
          "192048.421000",
          "192048.421000",
          "192048.421000",
          "192048.421000",
          "192048.421000",
          "192048.437000",
          "192048.437000",
          "192048.437000",
          "192048.437000",
          "192048.437000",
          "192048.453000",
          "192048.453000",
          "192048.453000",
          "192048.453000",
          "192051.812000",
          "192051.812000"
        ],
        "InstanceCreationTime": [
          "191608.406000",
          "191608.406000",
          "191608.421000",
          "191608.421000",
          "191608.421000",
          "191608.421000",
          "191608.421000",
          "191608.421000",
          "191608.421000",
          "191608.437000",
          "191608.437000",
          "191608.437000",
          "191608.437000",
          "191608.437000",
          "191608.437000",
          "191608.437000",
          "191608.453000",
          "191608.453000",
          "191608.453000",
          "191608.453000",
          "191608.453000",
          "191608.453000",
          "191648.390000",
          "191648.390000",
          "191648.390000",
          "191648.406000",
          "191648.406000",
          "191648.406000",
          "191648.406000",
          "191648.406000",
          "191648.406000",
          "191648.406000",
          "191648.421000",
          "191648.421000",
          "191648.421000",
          "191648.421000",
          "191648.421000",
          "191648.421000",
          "191648.421000",
          "191648.437000",
          "191648.437000",
          "191648.437000",
          "191728.390000",
          "191728.390000",
          "191728.390000",
          "191728.390000",
          "191728.406000",
          "191728.406000",
          "191728.406000",
          "191728.406000",
          "191728.406000",
          "191728.421000",
          "191728.421000",
          "191728.421000",
          "191728.421000",
          "191728.421000",
          "191728.437000",
          "191728.437000",
          "191728.437000",
          "191728.437000",
          "191728.437000",
          "191728.437000",
          "191808.390000",
          "191808.390000",
          "191808.390000",
          "191808.390000",
          "191808.406000",
          "191808.406000",
          "191808.406000",
          "191808.406000",
          "191808.406000",
          "191808.406000",
          "191808.421000",
          "191808.421000",
          "191808.421000",
          "191808.421000",
          "191808.421000",
          "191808.421000",
          "191808.437000",
          "191808.437000",
          "191808.437000",
          "191808.437000",
          "191848.390000",
          "191848.390000",
          "191848.390000",
          "191848.390000",
          "191848.406000",
          "191848.406000",
          "191848.406000",
          "191848.406000",
          "191848.406000",
          "191848.406000",
          "191848.406000",
          "191848.421000",
          "191848.421000",
          "191848.421000",
          "191848.421000",
          "191848.421000",
          "191848.421000",
          "191848.437000",
          "191848.437000",
          "191848.437000",
          "191928.390000",
          "191928.390000",
          "191928.390000",
          "191928.390000",
          "191928.406000",
          "191928.406000",
          "191928.406000",
          "191928.406000",
          "191928.406000",
          "191928.406000",
          "191928.406000",
          "191928.421000",
          "191928.421000",
          "191928.421000",
          "191928.421000",
          "191928.421000",
          "191928.421000",
          "191928.437000",
          "191928.437000",
          "191928.437000",
          "192008.390000",
          "192008.390000",
          "192008.390000",
          "192008.390000",
          "192008.406000",
          "192008.406000",
          "192008.406000",
          "192008.406000",
          "192008.406000",
          "192008.406000",
          "192008.421000",
          "192008.421000",
          "192008.421000",
          "192008.421000",
          "192008.421000",
          "192008.421000",
          "192008.421000",
          "192008.437000",
          "192008.437000",
          "192008.437000",
          "192048.390000",
          "192048.390000",
          "192048.390000",
          "192048.406000",
          "192048.406000",
          "192048.421000",
          "192048.421000",
          "192048.421000",
          "192048.421000",
          "192048.421000",
          "192048.421000",
          "192048.437000",
          "192048.437000",
          "192048.437000",
          "192048.437000",
          "192048.437000",
          "192048.453000",
          "192048.453000",
          "192048.453000",
          "192048.453000",
          "192051.812000",
          "192051.812000"
        ],
        "InstanceNumber": [
          1,
          2,
          3,
          4,
          5,
          6,
          7,
          8,
          9,
          10,
          11,
          12,
          13,
          14,
          15,
          16,
          17,
          18,
          19,
          20,
          21,
          22,
          23,
          24,
          25,
          26,
          27,
          28,
          29,
          30,
          31,
          32,
          33,
          34,
          35,
          36,
          37,
          38,
          39,
          40,
          41,
          42,
          43,
          44,
          45,
          46,
          47,
          48,
          49,
          50,
          51,
          52,
          53,
          54,
          55,
          56,
          57,
          58,
          59,
          60,
          61,
          62,
          63,
          64,
          65,
          66,
          67,
          68,
          69,
          70,
          71,
          72,
          73,
          74,
          75,
          76,
          77,
          78,
          79,
          80,
          81,
          82,
          83,
          84,
          85,
          86,
          87,
          88,
          89,
          90,
          91,
          92,
          93,
          94,
          95,
          96,
          97,
          98,
          99,
          100,
          101,
          102,
          103,
          104,
          105,
          106,
          107,
          108,
          109,
          110,
          111,
          112,
          113,
          114,
          115,
          116,
          117,
          118,
          119,
          120,
          121,
          122,
          123,
          124,
          125,
          126,
          127,
          128,
          129,
          130,
          131,
          132,
          133,
          134,
          135,
          136,
          137,
          138,
          139,
          140,
          141,
          142,
          143,
          144,
          145,
          146,
          147,
          148,
          149,
          150,
          151,
          152,
          153,
          154,
          155,
          156,
          157,
          158,
          159,
          160,
          161,
          162,
          163,
          164
        ],
        "WindowCenter": [
          1229.0,
          1230.0,
          1228.0,
          1225.0,
          1224.0,
          1223.0,
          1225.0,
          1224.0,
          1224.0,
          1224.0,
          1223.0,
          1223.0,
          1223.0,
          1223.0,
          1224.0,
          1227.0,
          1227.0,
          1227.0,
          1228.0,
          1229.0,
          1229.0,
          1228.0,
          1227.0,
          1228.0,
          1227.0,
          1225.0,
          1224.0,
          1223.0,
          1223.0,
          1223.0,
          1223.0,
          1223.0,
          1223.0,
          1223.0,
          1224.0,
          1225.0,
          1226.0,
          1229.0,
          1231.0,
          1229.0,
          1225.0,
          1223.0,
          1224.0,
          1225.0,
          1225.0,
          1225.0,
          1222.0,
          1222.0,
          1224.0,
          1223.0,
          1223.0,
          1223.0,
          1225.0,
          1226.0,
          1226.0,
          1225.0,
          1224.0,
          1224.0,
          1224.0,
          1227.0,
          1226.0,
          1230.0,
          1230.0,
          1225.0,
          1222.0,
          1222.0,
          1225.0,
          1226.0,
          1225.0,
          1225.0,
          1224.0,
          1223.0,
          1224.0,
          1225.0,
          1226.0,
          1228.0,
          1227.0,
          1227.0,
          1228.0,
          1229.0,
          1228.0,
          1227.0,
          1226.0,
          1226.0,
          1227.0,
          1227.0,
          1227.0,
          1227.0,
          1227.0,
          1226.0,
          1225.0,
          1223.0,
          1222.0,
          1223.0,
          1226.0,
          1226.0,
          1224.0,
          1224.0,
          1225.0,
          1226.0,
          1227.0,
          1228.0,
          1227.0,
          1227.0,
          1228.0,
          1229.0,
          1229.0,
          1227.0,
          1224.0,
          1222.0,
          1223.0,
          1223.0,
          1224.0,
          1224.0,
          1223.0,
          1222.0,
          1222.0,
          1221.0,
          1221.0,
          1223.0,
          1224.0,
          1224.0,
          1221.0,
          1221.0,
          1222.0,
          1224.0,
          1224.0,
          1224.0,
          1224.0,
          1223.0,
          1223.0,
          1224.0,
          1226.0,
          1225.0,
          1223.0,
          1224.0,
          1225.0,
          1224.0,
          1225.0,
          1226.0,
          1227.0,
          1226.0,
          1226.0,
          1227.0,
          1226.0,
          1225.0,
          1227.0,
          1225.0,
          1225.0,
          1224.0,
          1223.0,
          1225.0,
          1224.0,
          1224.0,
          1227.0,
          1229.0,
          1230.0,
          1229.0,
          1228.0,
          1228.0,
          1229.0,
          1230.0,
          1228.0,
          1229.0
        ],
        "WindowWidth": [
          2938.0,
          2939.0,
          2932.0,
          2926.0,
          2922.0,
          2923.0,
          2926.0,
          2923.0,
          2920.0,
          2919.0,
          2919.0,
          2919.0,
          2919.0,
          2920.0,
          2924.0,
          2929.0,
          2932.0,
          2934.0,
          2937.0,
          2938.0,
          2935.0,
          2932.0,
          2933.0,
          2935.0,
          2928.0,
          2926.0,
          2925.0,
          2922.0,
          2922.0,
          2922.0,
          2920.0,
          2921.0,
          2923.0,
          2921.0,
          2923.0,
          2923.0,
          2927.0,
          2937.0,
          2942.0,
          2932.0,
          2925.0,
          2921.0,
          2924.0,
          2929.0,
          2927.0,
          2923.0,
          2920.0,
          2919.0,
          2922.0,
          2921.0,
          2918.0,
          2923.0,
          2925.0,
          2926.0,
          2927.0,
          2924.0,
          2924.0,
          2926.0,
          2925.0,
          2928.0,
          2928.0,
          2938.0,
          2935.0,
          2923.0,
          2916.0,
          2919.0,
          2924.0,
          2929.0,
          2926.0,
          2922.0,
          2924.0,
          2923.0,
          2925.0,
          2927.0,
          2929.0,
          2934.0,
          2933.0,
          2933.0,
          2936.0,
          2936.0,
          2933.0,
          2930.0,
          2928.0,
