{
  "aor": 0.0017628658536585368,
  "aqi": 0.0056384076219512195,
  "bids_meta": {
    "AcquisitionMatrixPE": 96,
    "AcquisitionNumber": 1,
    "AcquisitionTime": "17:26:2.820000",
    "BandwidthPerPixelPhaseEncode": 52.083,
    "BaseResolution": 96,
    "BodyPartExamined": "HEAD",
    "ConversionSoftware": "dcm2niix",
    "ConversionSoftwareVersion": "v1.0.20180622 GCC6.3.0",
    "DerivedVendorReportedEchoSpacing": 0.000600004,
    "DeviceSerialNumber": "18926",
    "DwellTime": 2.6e-06,
    "EchoTime": 0.025,
    "EffectiveEchoSpacing": 0.000200001,
    "FlipAngle": 50,
    "ImageOrientationPatientDICOM": [
      1,
      -2.05103e-10,
      0,
      2.05103e-10,
      1,
      0
    ],
    "ImageType": [
      "ORIGINAL",
      "PRIMARY",
      "M",
      "ND",
      "ECHO",
      "00",
      "MOSAIC"
    ],
    "InPlanePhaseEncodingDirectionDICOM": "ROW",
    "InstitutionName": "NIMH",
    "InstitutionalDepartmentName": "Department",
    "MRAcquisitionType": "2D",
    "MagneticFieldStrength": 6.98,
    "Manufacturer": "Siemens",
    "ManufacturersModelName": "Investigational_Device_7T",
    "Modality": "MR",
    "ParallelReductionFactorInPlane": 3,
    "PartialFourier": 1,
    "PatientPosition": "HFS",
    "PercentPhaseFOV": 100,
    "PhaseEncodingDirection": "i",
    "PhaseEncodingSteps": 94,
    "PhaseResolution": 1,
    "PixelBandwidth": 2003,
    "ProcedureStepDescription": "MRI_Procedure_Limited",
    "ProtocolName": "NIH_EPI1.5_2.0iso_TR2_Run01",
    "PulseSequenceDetails": "%CustomerSeq%_inati_nih_epi_1_5",
    "ReceiveCoilName": "32Ch_Head_7T",
    "ReconMatrixPE": 96,
    "RepetitionTime": 2,
    "SAR": 0.0847833,
    "ScanningSequence": "EP",
    "SequenceName": "epfid2d1_96",
    "SequenceVariant": "SK",
    "SeriesDescription": "NIH_EPI1.5_2.0iso_TR2_Run01",
    "SeriesNumber": 5,
    "ShimSetting": [
      -139,
      131,
      1236,
      2353,
      -246,
      520,
      291,
      -272
    ],
    "SliceThickness": 2,
    "SliceTiming": [
      1.0025,
      0,
      1.04,
      0.0375,
      1.0775,
      0.075,
      1.115,
      0.1125,
      1.1525,
      0.1475,
      1.19,
      0.185,
      1.2275,
      0.2225,
      1.265,
      0.26,
      1.3,
      0.2975,
      1.3375,
      0.335,
      1.375,
      0.3725,
      1.4125,
      0.41,
      1.45,
      0.445,
      1.4875,
      0.4825,
      1.525,
      0.52,
      1.5625,
      0.5575,
      1.5975,
      0.595,
      1.635,
      0.6325,
      1.6725,
      0.67,
      1.71,
      0.7075,
      1.7475,
      0.7425,
      1.785,
      0.78,
      1.8225,
      0.8175,
      1.86,
      0.855,
      1.895,
      0.8925,
      1.9325,
      0.93,
      1.97,
      0.9675
    ],
    "SoftwareVersions": "syngo_MR_B17",
    "SpacingBetweenSlices": 2,
    "StationName": "FMRIFD7T",
    "TaskName": "FullFovAttentionTask",
    "TotalReadoutTime": 0.0190001,
    "TxRefAmp": 276,
    "dataset": "ds001555",
    "dcmmeta_affine": [
      [
        -2.0,
        4.1020681296188855e-10,
        0.0,
        96.0
      ],
      [
        4.1020681296188855e-10,
        2.0,
        0.0,
        -68.3614501953125
      ],
      [
        0.0,
        0.0,
        2.0,
        -32.0843391418457
      ],
      [
        0.0,
        0.0,
        0.0,
        1.0
      ]
    ],
    "dcmmeta_reorient_transform": [
      [
        0.0,
        -1.0,
        0.0,
        95.0
      ],
      [
        1.0,
        0.0,
        0.0,
        0.0
      ],
      [
        0.0,
        0.0,
        1.0,
        0.0
      ],
      [
        0.0,
        0.0,
        0.0,
        1.0
      ]
    ],
    "dcmmeta_shape": [
      96,
      96,
      54,
      164
    ],
    "dcmmeta_slice_dim": 2,
    "dcmmeta_version": 0.6,
    "global": {
      "const": {
        "AcquisitionMatrix": [
          0,
          96,
          96,
          0
        ],
        "Allergies": "No Known Allergies",
        "AngioFlag": "N",
        "BitsAllocated": 16,
        "BitsStored": 12,
        "BodyPartExamined": "HEAD",
        "Columns": 768,
        "EchoNumbers": 1,
        "EchoTime": 25.0,
        "EchoTrainLength": 1,
        "FlipAngle": 50.0,
        "HighBit": 11,
        "ImageOrientationPatient": [
          1.0,
          -2.051034e-10,
          0.0,
          2.051034e-10,
          1.0,
          0.0
        ],
        "ImagePositionPatient": [
          -768.00000015752,
          -793.63855346187,
          -32.084339141846
        ],
        "ImageType": [
          "ORIGINAL",
          "PRIMARY",
          "M",
          "ND",
          "ECHO_00",
          "MOSAIC"
        ],
        "ImagedNucleus": "1H",
        "ImagingFrequency": 297.204825,
        "InPlanePhaseEncodingDirection": "ROW",
        "MRAcquisitionType": "2D",
        "MagneticFieldStrength": 6.98,
        "Manufacturer": "SIEMENS",
        "ManufacturerModelName": "Investigational_Device_7T",
        "Modality": "MR",
        "NumberOfAverages": 1.0,
        "NumberOfPhaseEncodingSteps": 94,
        "PercentPhaseFieldOfView": 100.0,
        "PercentSampling": 100.0,
        "PerformedProcedureStepStartTime": "165915.421000",
        "PhotometricInterpretation": "MONOCHROME2",
        "PixelBandwidth": 2003.0,
        "PixelRepresentation": 0,
        "PixelSpacing": [
          2.0,
          2.0
        ],
        "PositionReferenceIndicator": "",
        "ProcedureCodeSequence": [
          {
            "CodeMeaning": "MRI Procedure Limited",
            "CodeValue": "MI01491",
            "CodingSchemeDesignator": "USA Standard",
            "ContextIdentifier": "4000140010"
          }
        ],
        "ProtocolName": "NIH_EPI1.5_2.0iso_TR2_Run01",
        "ReferencedStudySequence": [
          {
            "ReferencedSOPClassUID": "1.2.840.10008.3.1.2.3.1",
            "ReferencedSOPInstanceUID": "1.2.840.113564.9.1.2787814059.53.2.5000105881"
          }
        ],
        "RepetitionTime": 2000.0,
        "RequestedProcedureCodeSequence": [
          {
            "CodeMeaning": "MRI Procedure Limited",
            "CodeValue": "MI01491",
            "CodingSchemeDesignator": "USA Standard",
            "ContextIdentifier": "4000140010"
          }
        ],
        "RequestingService": "NIMH Molecular Imaging Branch",
        "Rows": 768,
        "SAR": 0.08478332352825,
        "SamplesPerPixel": 1,
        "ScanningSequence": "EP",
        "SequenceName": "epfid2d1_96",
        "SequenceVariant": "SK",
        "SeriesDescription": "NIH_EPI1.5_2.0iso_TR2_Run01",
        "SeriesNumber": 5,
        "SliceLocation": -32.084339141846,
        "SliceThickness": 2.0,
        "SmallestImagePixelValue": 0,
        "SoftwareVersions": "syngo MR B17",
        "SpacingBetweenSlices": 2.0000000719754,
        "TransmitCoilName": "32Ch_Head_7T",
        "VariableFlipAngleFlag": "N",
        "WindowCenterWidthExplanation": "Algo1",
        "dBdt": 0.0
      },
      "slices": {}
    },
    "modality": "bold",
    "run_id": 2,
    "session_id": "11",
    "subject_id": "003",
    "task_id": "FullFovAttentionTask",
    "time": {
      "samples": {
        "AcquisitionNumber": [
          1,
          2,
          3,
          4,
          5,
          6,
          7,
          8,
          9,
          10,
          11,
          12,
          13,
          14,
          15,
          16,
          17,
          18,
          19,
          20,
          21,
          22,
          23,
          24,
          25,
          26,
          27,
          28,
          29,
          30,
          31,
          32,
          33,
          34,
          35,
          36,
          37,
          38,
          39,
          40,
          41,
          42,
          43,
          44,
          45,
          46,
          47,
          48,
          49,
          50,
          51,
          52,
          53,
          54,
          55,
          56,
          57,
          58,
          59,
          60,
          61,
          62,
          63,
          64,
          65,
          66,
          67,
          68,
          69,
          70,
          71,
          72,
          73,
          74,
          75,
          76,
          77,
          78,
          79,
          80,
          81,
          82,
          83,
          84,
          85,
          86,
          87,
          88,
          89,
          90,
          91,
          92,
          93,
          94,
          95,
          96,
          97,
          98,
          99,
          100,
          101,
          102,
          103,
          104,
          105,
          106,
          107,
          108,
          109,
          110,
          111,
          112,
          113,
          114,
          115,
          116,
          117,
          118,
          119,
          120,
          121,
          122,
          123,
          124,
          125,
          126,
          127,
          128,
          129,
          130,
          131,
          132,
          133,
          134,
          135,
          136,
          137,
          138,
          139,
          140,
          141,
          142,
          143,
          144,
          145,
          146,
          147,
          148,
          149,
          150,
          151,
          152,
          153,
          154,
          155,
          156,
          157,
          158,
          159,
          160,
          161,
          162,
          163,
          164
        ],
        "AcquisitionTime": [
          "172602.820000",
          "172606.837500",
          "172608.845000",
          "172610.852500",
          "172612.862500",
          "172614.870000",
          "172616.877500",
          "172618.885000",
          "172620.892500",
          "172622.902500",
          "172624.910000",
          "172626.917500",
          "172628.925000",
          "172630.932500",
          "172632.942500",
          "172634.950000",
          "172636.957500",
          "172638.965000",
          "172640.975000",
          "172642.982500",
          "172644.990000",
          "172646.997500",
          "172649.005000",
          "172651.015000",
          "172653.022500",
          "172655.030000",
          "172657.037500",
          "172659.045000",
          "172701.055000",
          "172703.062500",
          "172705.070000",
          "172707.077500",
          "172709.087500",
          "172711.095000",
          "172713.102500",
          "172715.110000",
          "172717.117500",
          "172719.127500",
          "172721.135000",
          "172723.142500",
          "172725.150000",
          "172727.157500",
          "172729.167500",
          "172731.175000",
          "172733.182500",
          "172735.190000",
          "172737.197500",
          "172739.207500",
          "172741.215000",
          "172743.222500",
          "172745.230000",
          "172747.240000",
          "172749.247500",
          "172751.255000",
          "172753.262500",
          "172755.270000",
          "172757.280000",
          "172759.287500",
          "172801.295000",
          "172803.302500",
          "172805.310000",
          "172807.320000",
          "172809.327500",
          "172811.335000",
          "172813.342500",
          "172815.352500",
          "172817.360000",
          "172819.367500",
          "172821.375000",
          "172823.382500",
          "172825.392500",
          "172827.400000",
          "172829.407500",
          "172831.415000",
          "172833.422500",
          "172835.432500",
          "172837.440000",
          "172839.447500",
          "172841.455000",
          "172843.465000",
          "172845.472500",
          "172847.480000",
          "172849.487500",
          "172851.495000",
          "172853.505000",
          "172855.512500",
          "172857.520000",
          "172859.527500",
          "172901.535000",
          "172903.545000",
          "172905.552500",
          "172907.560000",
          "172909.567500",
          "172911.575000",
          "172913.585000",
          "172915.592500",
          "172917.600000",
          "172919.607500",
          "172921.617500",
          "172923.625000",
          "172925.632500",
          "172927.640000",
          "172929.647500",
          "172931.657500",
          "172933.665000",
          "172935.672500",
          "172937.680000",
          "172939.687500",
          "172941.697500",
          "172943.705000",
          "172945.712500",
          "172947.720000",
          "172949.730000",
          "172951.737500",
          "172953.745000",
          "172955.752500",
          "172957.760000",
          "172959.770000",
          "173001.777500",
          "173003.785000",
          "173005.792500",
          "173007.800000",
          "173009.810000",
          "173011.817500",
          "173013.825000",
          "173015.832500",
          "173017.842500",
          "173019.850000",
          "173021.857500",
          "173023.865000",
          "173025.872500",
          "173027.882500",
          "173029.890000",
          "173031.897500",
          "173033.905000",
          "173035.912500",
          "173037.922500",
          "173039.930000",
          "173041.937500",
          "173043.945000",
          "173045.952500",
          "173047.962500",
          "173049.970000",
          "173051.977500",
          "173053.985000",
          "173055.995000",
          "173058.002500",
          "173100.010000",
          "173102.017500",
          "173104.025000",
          "173106.035000",
          "173108.042500",
          "173110.050000",
          "173112.057500",
          "173114.065000",
          "173116.075000",
          "173118.082500",
          "173120.090000",
          "173122.097500",
          "173124.107500",
          "173126.115000",
          "173128.122500",
          "173130.130000",
          "173132.137500"
        ],
        "ContentTime": [
          "172654.734000",
          "172654.750000",
          "172654.750000",
          "172654.750000",
          "172654.750000",
          "172654.765000",
          "172654.765000",
          "172654.765000",
          "172654.765000",
          "172654.781000",
          "172654.781000",
          "172654.781000",
          "172654.781000",
          "172654.781000",
          "172654.781000",
          "172654.796000",
          "172654.796000",
          "172654.796000",
          "172654.796000",
          "172654.796000",
          "172654.796000",
          "172654.812000",
          "172654.812000",
          "172654.812000",
          "172654.812000",
          "172734.734000",
          "172734.734000",
          "172734.734000",
          "172734.734000",
          "172734.750000",
          "172734.750000",
          "172734.750000",
          "172734.750000",
          "172734.750000",
          "172734.765000",
          "172734.765000",
          "172734.765000",
          "172734.765000",
          "172734.765000",
          "172734.781000",
          "172734.781000",
          "172734.781000",
          "172734.781000",
          "172734.781000",
          "172734.781000",
          "172814.734000",
          "172814.734000",
          "172814.734000",
          "172814.734000",
          "172814.750000",
          "172814.750000",
          "172814.750000",
          "172814.750000",
          "172814.750000",
          "172814.750000",
          "172814.765000",
          "172814.765000",
          "172814.765000",
          "172814.765000",
          "172814.765000",
          "172814.765000",
          "172814.765000",
          "172814.781000",
          "172814.781000",
          "172814.781000",
          "172854.734000",
          "172854.734000",
          "172854.734000",
          "172854.734000",
          "172854.750000",
          "172854.750000",
          "172854.750000",
          "172854.750000",
          "172854.750000",
          "172854.750000",
          "172854.765000",
          "172854.765000",
          "172854.765000",
          "172854.765000",
          "172854.781000",
          "172854.781000",
          "172854.781000",
          "172854.781000",
          "172854.781000",
          "172854.796000",
          "172934.734000",
          "172934.734000",
          "172934.734000",
          "172934.734000",
          "172934.750000",
          "172934.750000",
          "172934.750000",
          "172934.750000",
          "172934.750000",
          "172934.750000",
          "172934.750000",
          "172934.765000",
          "172934.765000",
          "172934.765000",
          "172934.765000",
          "172934.765000",
          "172934.765000",
          "172934.781000",
          "172934.781000",
          "172934.781000",
          "173014.734000",
          "173014.734000",
          "173014.734000",
          "173014.734000",
          "173014.734000",
          "173014.750000",
          "173014.750000",
          "173014.750000",
          "173014.750000",
          "173014.750000",
          "173014.750000",
          "173014.765000",
          "173014.765000",
          "173014.765000",
          "173014.765000",
          "173014.765000",
          "173014.765000",
          "173014.781000",
          "173014.781000",
          "173014.781000",
          "173054.734000",
          "173054.734000",
          "173054.734000",
          "173054.734000",
          "173054.750000",
          "173054.750000",
          "173054.750000",
          "173054.750000",
          "173054.750000",
          "173054.765000",
          "173054.765000",
          "173054.765000",
          "173054.765000",
          "173054.765000",
          "173054.765000",
          "173054.765000",
          "173054.781000",
          "173054.781000",
          "173054.781000",
          "173054.781000",
          "173132.578000",
          "173132.578000",
          "173132.578000",
          "173132.578000",
          "173132.578000",
          "173132.593000",
          "173132.593000",
          "173132.593000",
          "173132.593000",
          "173132.593000",
          "173132.593000",
          "173132.593000",
          "173132.609000",
          "173132.609000",
          "173132.609000",
          "173132.609000",
          "173132.625000",
          "173132.625000",
          "173132.625000"
        ],
        "InstanceCreationTime": [
          "172654.734000",
          "172654.750000",
          "172654.750000",
          "172654.750000",
          "172654.750000",
          "172654.765000",
          "172654.765000",
          "172654.765000",
          "172654.765000",
          "172654.781000",
          "172654.781000",
          "172654.781000",
          "172654.781000",
          "172654.781000",
          "172654.781000",
          "172654.796000",
          "172654.796000",
          "172654.796000",
          "172654.796000",
          "172654.796000",
          "172654.796000",
          "172654.812000",
          "172654.812000",
          "172654.812000",
          "172654.812000",
          "172734.734000",
          "172734.734000",
          "172734.734000",
          "172734.734000",
          "172734.750000",
          "172734.750000",
          "172734.750000",
          "172734.750000",
          "172734.750000",
          "172734.765000",
          "172734.765000",
          "172734.765000",
          "172734.765000",
          "172734.765000",
          "172734.781000",
          "172734.781000",
          "172734.781000",
          "172734.781000",
          "172734.781000",
          "172734.781000",
          "172814.734000",
          "172814.734000",
          "172814.734000",
          "172814.734000",
          "172814.750000",
          "172814.750000",
          "172814.750000",
          "172814.750000",
          "172814.750000",
          "172814.750000",
          "172814.765000",
          "172814.765000",
          "172814.765000",
          "172814.765000",
          "172814.765000",
          "172814.765000",
          "172814.765000",
          "172814.781000",
          "172814.781000",
          "172814.781000",
          "172854.734000",
          "172854.734000",
          "172854.734000",
          "172854.734000",
          "172854.750000",
          "172854.750000",
          "172854.750000",
          "172854.750000",
          "172854.750000",
          "172854.750000",
          "172854.765000",
          "172854.765000",
          "172854.765000",
          "172854.765000",
          "172854.781000",
          "172854.781000",
          "172854.781000",
          "172854.781000",
          "172854.781000",
          "172854.796000",
          "172934.734000",
          "172934.734000",
          "172934.734000",
          "172934.734000",
          "172934.750000",
          "172934.750000",
          "172934.750000",
          "172934.750000",
          "172934.750000",
          "172934.750000",
          "172934.750000",
          "172934.765000",
          "172934.765000",
          "172934.765000",
          "172934.765000",
          "172934.765000",
          "172934.765000",
          "172934.781000",
          "172934.781000",
          "172934.781000",
          "173014.734000",
          "173014.734000",
          "173014.734000",
          "173014.734000",
          "173014.734000",
          "173014.750000",
          "173014.750000",
          "173014.750000",
          "173014.750000",
          "173014.750000",
          "173014.750000",
          "173014.765000",
          "173014.765000",
          "173014.765000",
          "173014.765000",
          "173014.765000",
          "173014.765000",
          "173014.781000",
          "173014.781000",
          "173014.781000",
          "173054.734000",
          "173054.734000",
          "173054.734000",
          "173054.734000",
          "173054.750000",
          "173054.750000",
          "173054.750000",
          "173054.750000",
          "173054.750000",
          "173054.765000",
          "173054.765000",
          "173054.765000",
          "173054.765000",
          "173054.765000",
          "173054.765000",
          "173054.765000",
          "173054.781000",
          "173054.781000",
          "173054.781000",
          "173054.781000",
          "173132.578000",
          "173132.578000",
          "173132.578000",
          "173132.578000",
          "173132.578000",
          "173132.593000",
          "173132.593000",
          "173132.593000",
          "173132.593000",
          "173132.593000",
          "173132.593000",
          "173132.593000",
          "173132.609000",
          "173132.609000",
          "173132.609000",
          "173132.609000",
          "173132.625000",
          "173132.625000",
          "173132.625000"
        ],
        "InstanceNumber": [
          1,
          2,
          3,
          4,
          5,
          6,
          7,
          8,
          9,
          10,
          11,
          12,
          13,
          14,
          15,
          16,
          17,
          18,
          19,
          20,
          21,
          22,
          23,
          24,
          25,
          26,
          27,
          28,
          29,
          30,
          31,
          32,
          33,
          34,
          35,
          36,
          37,
          38,
          39,
          40,
          41,
          42,
          43,
          44,
          45,
          46,
          47,
          48,
          49,
          50,
          51,
          52,
          53,
          54,
          55,
          56,
          57,
          58,
          59,
          60,
          61,
          62,
          63,
          64,
          65,
          66,
          67,
          68,
          69,
          70,
          71,
          72,
          73,
          74,
          75,
          76,
          77,
          78,
          79,
          80,
          81,
          82,
          83,
          84,
          85,
          86,
          87,
          88,
          89,
          90,
          91,
          92,
          93,
          94,
          95,
          96,
          97,
          98,
          99,
          100,
          101,
          102,
          103,
          104,
          105,
          106,
          107,
          108,
          109,
          110,
          111,
          112,
          113,
          114,
          115,
          116,
          117,
          118,
          119,
          120,
          121,
          122,
          123,
          124,
          125,
          126,
          127,
          128,
          129,
          130,
          131,
          132,
          133,
          134,
          135,
          136,
          137,
          138,
          139,
          140,
          141,
          142,
          143,
          144,
          145,
          146,
          147,
          148,
          149,
          150,
          151,
          152,
          153,
          154,
          155,
          156,
          157,
          158,
          159,
          160,
          161,
          162,
          163,
          164
        ],
        "LargestImagePixelValue": [
          2985,
          2976,
          3010,
          3004,
          2976,
          2975,
          2956,
          3018,
          3025,
          2995,
          2992,
          2989,
          3015,
          3004,
          2987,
          2981,
          3045,
          3035,
          2986,
          3015,
          2970,
          2981,
          2998,
          2995,
          3012,
          2998,
          2994,
          3003,
          3007,
          3027,
          2987,
          3016,
          3025,
          3025,
          3049,
          3051,
          3061,
          3063,
          3067,
          3041,
          3035,
          3058,
          3051,
          3047,
          3044,
          3057,
          3072,
          3062,
          3050,
          3080,
          3117,
          3075,
          3103,
          3116,
          3114,
          3142,
          3150,
          3111,
          3159,
          3140,
          3143,
          3168,
          3140,
          3148,
          3171,
          3161,
          3154,
          3170,
          3163,
          3152,
          3166,
          3173,
          3168,
          3181,
          3166,
          3170,
          3164,
          3196,
          3207,
          3186,
          3242,
          3222,
          3202,
          3211,
          3240,
          3201,
          3221,
          3250,
          3222,
          3219,
          3244,
          3258,
          3250,
          3252,
          3271,
          3260,
          3236,
          3252,
          3274,
          3277,
          3275,
          3296,
          3274,
          3284,
          3309,
          3299,
          3307,
          3332,
          3329,
          3369,
          3353,
          3355,
          3387,
          3345,
          3338,
          3351,
          3360,
          3379,
          3384,
          3373,
          3398,
          3370,
          3381,
          3430,
          3390,
          3415,
          3429,
          3444,
          3462,
          3456,
          3417,
          3431,
          3456,
          3462,
          3406,
          3418,
          3476,
          3425,
          3364,
          3360,
          3407,
          3411,
          3409,
          3395,
          3397,
          3408,
          3421,
          3398,
          3402,
          3385,
          3406,
          3408,
          3405,
          3405,
          3382,
          3385,
          3392,
          3418,
          3387,
          3429,
          3414,
          3381,
          3404,
          3410
        ],
        "WindowCenter": [
          733.0,
          733.0,
          733.0,
          732.0,
          733.0,
          734.0,
          734.0,
          734.0,
          735.0,
          735.0,
          735.0,
          734.0,
          736.0,
          736.0,
          735.0,
          735.0,
          736.0,
          737.0,
          737.0,
          736.0,
          735.0,
          734.0,
          733.0,
          733.0,
          734.0,
          734.0,
          734.0,
          734.0,
          734.0,
          735.0,
          736.0,
          736.0,
          735.0,
          735.0,
          735.0,
          736.0,
          736.0,
          738.0,
          738.0,
          738.0,
          737.0,
          736.0,
          736.0,
          735.0,
          735.0,
          734.0,
          734.0,
          735.0,
          735.0,
          735.0,
          735.0,
          734.0,
          735.0,
          736.0,
          735.0,
          734.0,
          734.0,
          734.0,
          736.0,
          736.0,
          736.0,
          735.0,
          735.0,
          736.0,
          735.0,
          735.0,
          735.0,
          737.0,
          738.0,
          737.0,
          737.0,
          737.0,
          736.0,
          735.0,
          735.0,
          735.0,
          734.0,
          734.0,
          733.0,
          733.0,
          733.0,
          733.0,
          734.0,
          735.0,
          734.0,
          734.0,
          734.0,
          735.0,
          735.0,
          735.0,
          736.0,
          735.0,
          734.0,
          734.0,
          735.0,
          735.0,
          736.0,
          737.0,
          736.0,
          736.0,
          736.0,
          736.0,
          735.0,
          734.0,
          734.0,
          734.0,
          735.0,
          736.0,
          735.0,
          733.0,
          733.0,
          733.0,
          733.0,
          734.0,
          735.0,
          737.0,
          736.0,
          734.0,
