{
  "aor": 0.0028642073170731704,
  "aqi": 0.007528058170731706,
  "bids_meta": {
    "AcquisitionMatrixPE": 96,
    "AcquisitionNumber": 1,
    "AcquisitionTime": "18:09:24.517500",
    "BandwidthPerPixelPhaseEncode": 52.083,
    "BaseResolution": 96,
    "BodyPartExamined": "HEAD",
    "ConversionSoftware": "dcm2niix",
    "ConversionSoftwareVersion": "v1.0.20180622 GCC6.3.0",
    "DerivedVendorReportedEchoSpacing": 0.000600004,
    "DeviceSerialNumber": "18926",
    "DwellTime": 2.6e-06,
    "EchoTime": 0.025,
    "EffectiveEchoSpacing": 0.000200001,
    "FlipAngle": 50,
    "ImageOrientationPatientDICOM": [
      1,
      -2.05103e-10,
      0,
      2.05103e-10,
      1,
      0
    ],
    "ImageType": [
      "ORIGINAL",
      "PRIMARY",
      "M",
      "ND",
      "ECHO",
      "00",
      "MOSAIC"
    ],
    "InPlanePhaseEncodingDirectionDICOM": "ROW",
    "InstitutionName": "NIMH",
    "InstitutionalDepartmentName": "Department",
    "MRAcquisitionType": "2D",
    "MagneticFieldStrength": 6.98,
    "Manufacturer": "Siemens",
    "ManufacturersModelName": "Investigational_Device_7T",
    "Modality": "MR",
    "ParallelReductionFactorInPlane": 3,
    "PartialFourier": 1,
    "PatientPosition": "HFS",
    "PercentPhaseFOV": 100,
    "PhaseEncodingDirection": "i",
    "PhaseEncodingSteps": 94,
    "PhaseResolution": 1,
    "PixelBandwidth": 2003,
    "ProcedureStepDescription": "MRI_Procedure_Limited",
    "ProtocolName": "NIH_EPI1.5_2.0iso_TR2_Run07",
    "PulseSequenceDetails": "%CustomerSeq%_inati_nih_epi_1_5",
    "ReceiveCoilName": "32Ch_Head_7T",
    "ReconMatrixPE": 96,
    "RepetitionTime": 2,
    "SAR": 0.0847833,
    "ScanningSequence": "EP",
    "SequenceName": "epfid2d1_96",
    "SequenceVariant": "SK",
    "SeriesDescription": "NIH_EPI1.5_2.0iso_TR2_Run07",
    "SeriesNumber": 11,
    "ShimSetting": [
      -139,
      131,
      1236,
      2353,
      -246,
      520,
      291,
      -272
    ],
    "SliceThickness": 2,
    "SliceTiming": [
      1.0025,
      0,
      1.04,
      0.0375,
      1.0775,
      0.0725,
      1.115,
      0.11,
      1.1525,
      0.1475,
      1.19,
      0.185,
      1.225,
      0.2225,
      1.2625,
      0.26,
      1.3,
      0.2975,
      1.3375,
      0.335,
      1.375,
      0.37,
      1.4125,
      0.4075,
      1.45,
      0.445,
      1.4875,
      0.4825,
      1.5225,
      0.52,
      1.56,
      0.5575,
      1.5975,
      0.595,
      1.635,
      0.63,
      1.6725,
      0.6675,
      1.71,
      0.705,
      1.7475,
      0.7425,
      1.785,
      0.78,
      1.82,
      0.8175,
      1.8575,
      0.855,
      1.895,
      0.8925,
      1.9325,
      0.9275,
      1.97,
      0.965
    ],
    "SoftwareVersions": "syngo_MR_B17",
    "SpacingBetweenSlices": 2,
    "StationName": "FMRIFD7T",
    "TaskName": "FullFovAttentionTask",
    "TotalReadoutTime": 0.0190001,
    "TxRefAmp": 276,
    "dataset": "ds001555",
    "dcmmeta_affine": [
      [
        -2.0,
        4.1020681296188855e-10,
        0.0,
        96.0
      ],
      [
        4.1020681296188855e-10,
        2.0,
        0.0,
        -68.3614501953125
      ],
      [
        0.0,
        0.0,
        2.0,
        -32.0843391418457
      ],
      [
        0.0,
        0.0,
        0.0,
        1.0
      ]
    ],
    "dcmmeta_reorient_transform": [
      [
        0.0,
        -1.0,
        0.0,
        95.0
      ],
      [
        1.0,
        0.0,
        0.0,
        0.0
      ],
      [
        0.0,
        0.0,
        1.0,
        0.0
      ],
      [
        0.0,
        0.0,
        0.0,
        1.0
      ]
    ],
    "dcmmeta_shape": [
      96,
      96,
      54,
      164
    ],
    "dcmmeta_slice_dim": 2,
    "dcmmeta_version": 0.6,
    "global": {
      "const": {
        "AcquisitionMatrix": [
          0,
          96,
          96,
          0
        ],
        "Allergies": "No Known Allergies",
        "AngioFlag": "N",
        "BitsAllocated": 16,
        "BitsStored": 12,
        "BodyPartExamined": "HEAD",
        "Columns": 768,
        "EchoNumbers": 1,
        "EchoTime": 25.0,
        "EchoTrainLength": 1,
        "FlipAngle": 50.0,
        "HighBit": 11,
        "ImageOrientationPatient": [
          1.0,
          -2.051034e-10,
          0.0,
          2.051034e-10,
          1.0,
          0.0
        ],
        "ImagePositionPatient": [
          -768.00000015752,
          -793.63855346187,
          -32.084339141846
        ],
        "ImageType": [
          "ORIGINAL",
          "PRIMARY",
          "M",
          "ND",
          "ECHO_00",
          "MOSAIC"
        ],
        "ImagedNucleus": "1H",
        "ImagingFrequency": 297.204946,
        "InPlanePhaseEncodingDirection": "ROW",
        "MRAcquisitionType": "2D",
        "MagneticFieldStrength": 6.98,
        "Manufacturer": "SIEMENS",
        "ManufacturerModelName": "Investigational_Device_7T",
        "Modality": "MR",
        "NumberOfAverages": 1.0,
        "NumberOfPhaseEncodingSteps": 94,
        "PercentPhaseFieldOfView": 100.0,
        "PercentSampling": 100.0,
        "PerformedProcedureStepStartTime": "165915.421000",
        "PhotometricInterpretation": "MONOCHROME2",
        "PixelBandwidth": 2003.0,
        "PixelRepresentation": 0,
        "PixelSpacing": [
          2.0,
          2.0
        ],
        "PositionReferenceIndicator": "",
        "ProcedureCodeSequence": [
          {
            "CodeMeaning": "MRI Procedure Limited",
            "CodeValue": "MI01491",
            "CodingSchemeDesignator": "USA Standard",
            "ContextIdentifier": "4000140010"
          }
        ],
        "ProtocolName": "NIH_EPI1.5_2.0iso_TR2_Run07",
        "ReferencedStudySequence": [
          {
            "ReferencedSOPClassUID": "1.2.840.10008.3.1.2.3.1",
            "ReferencedSOPInstanceUID": "1.2.840.113564.9.1.2787814059.53.2.5000105881"
          }
        ],
        "RepetitionTime": 2000.0,
        "RequestedProcedureCodeSequence": [
          {
            "CodeMeaning": "MRI Procedure Limited",
            "CodeValue": "MI01491",
            "CodingSchemeDesignator": "USA Standard",
            "ContextIdentifier": "4000140010"
          }
        ],
        "RequestingService": "NIMH Molecular Imaging Branch",
        "Rows": 768,
        "SAR": 0.08478332352825,
        "SamplesPerPixel": 1,
        "ScanningSequence": "EP",
        "SequenceName": "epfid2d1_96",
        "SequenceVariant": "SK",
        "SeriesDescription": "NIH_EPI1.5_2.0iso_TR2_Run07",
        "SeriesNumber": 11,
        "SliceLocation": -32.084339141846,
        "SliceThickness": 2.0,
        "SmallestImagePixelValue": 0,
        "SoftwareVersions": "syngo MR B17",
        "SpacingBetweenSlices": 2.0000000719754,
        "TransmitCoilName": "32Ch_Head_7T",
        "VariableFlipAngleFlag": "N",
        "WindowCenterWidthExplanation": "Algo1",
        "dBdt": 0.0
      },
      "slices": {}
    },
    "modality": "bold",
    "run_id": 8,
    "session_id": "11",
    "subject_id": "003",
    "task_id": "FullFovAttentionTask",
    "time": {
      "samples": {
        "AcquisitionNumber": [
          1,
          2,
          3,
          4,
          5,
          6,
          7,
          8,
          9,
          10,
          11,
          12,
          13,
          14,
          15,
          16,
          17,
          18,
          19,
          20,
          21,
          22,
          23,
          24,
          25,
          26,
          27,
          28,
          29,
          30,
          31,
          32,
          33,
          34,
          35,
          36,
          37,
          38,
          39,
          40,
          41,
          42,
          43,
          44,
          45,
          46,
          47,
          48,
          49,
          50,
          51,
          52,
          53,
          54,
          55,
          56,
          57,
          58,
          59,
          60,
          61,
          62,
          63,
          64,
          65,
          66,
          67,
          68,
          69,
          70,
          71,
          72,
          73,
          74,
          75,
          76,
          77,
          78,
          79,
          80,
          81,
          82,
          83,
          84,
          85,
          86,
          87,
          88,
          89,
          90,
          91,
          92,
          93,
          94,
          95,
          96,
          97,
          98,
          99,
          100,
          101,
          102,
          103,
          104,
          105,
          106,
          107,
          108,
          109,
          110,
          111,
          112,
          113,
          114,
          115,
          116,
          117,
          118,
          119,
          120,
          121,
          122,
          123,
          124,
          125,
          126,
          127,
          128,
          129,
          130,
          131,
          132,
          133,
          134,
          135,
          136,
          137,
          138,
          139,
          140,
          141,
          142,
          143,
          144,
          145,
          146,
          147,
          148,
          149,
          150,
          151,
          152,
          153,
          154,
          155,
          156,
          157,
          158,
          159,
          160,
          161,
          162,
          163,
          164
        ],
        "AcquisitionTime": [
          "180924.517500",
          "180928.535000",
          "180930.542500",
          "180932.550000",
          "180934.557500",
          "180936.565000",
          "180938.575000",
          "180940.582500",
          "180942.590000",
          "180944.597500",
          "180946.607500",
          "180948.615000",
          "180950.622500",
          "180952.630000",
          "180954.637500",
          "180956.647500",
          "180958.655000",
          "181000.662500",
          "181002.670000",
          "181004.677500",
          "181006.687500",
          "181008.695000",
          "181010.702500",
          "181012.710000",
          "181014.720000",
          "181016.727500",
          "181018.735000",
          "181020.742500",
          "181022.750000",
          "181024.760000",
          "181026.767500",
          "181028.775000",
          "181030.782500",
          "181032.790000",
          "181034.800000",
          "181036.807500",
          "181038.815000",
          "181040.822500",
          "181042.832500",
          "181044.840000",
          "181046.847500",
          "181048.855000",
          "181050.862500",
          "181052.872500",
          "181054.880000",
          "181056.887500",
          "181058.895000",
          "181100.902500",
          "181102.912500",
          "181104.920000",
          "181106.927500",
          "181108.935000",
          "181110.942500",
          "181112.952500",
          "181114.960000",
          "181116.967500",
          "181118.975000",
          "181120.985000",
          "181122.992500",
          "181125.000000",
          "181127.007500",
          "181129.015000",
          "181131.025000",
          "181133.032500",
          "181135.040000",
          "181137.047500",
          "181139.055000",
          "181141.065000",
          "181143.072500",
          "181145.080000",
          "181147.087500",
          "181149.097500",
          "181151.105000",
          "181153.112500",
          "181155.120000",
          "181157.127500",
          "181159.137500",
          "181201.145000",
          "181203.152500",
          "181205.160000",
          "181207.167500",
          "181209.177500",
          "181211.185000",
          "181213.192500",
          "181215.200000",
          "181217.210000",
          "181219.217500",
          "181221.225000",
          "181223.232500",
          "181225.240000",
          "181227.250000",
          "181229.257500",
          "181231.265000",
          "181233.272500",
          "181235.280000",
          "181237.290000",
          "181239.297500",
          "181241.305000",
          "181243.312500",
          "181245.320000",
          "181247.330000",
          "181249.337500",
          "181251.345000",
          "181253.352500",
          "181255.362500",
          "181257.370000",
          "181259.377500",
          "181301.385000",
          "181303.392500",
          "181305.402500",
          "181307.410000",
          "181309.417500",
          "181311.425000",
          "181313.432500",
          "181315.442500",
          "181317.450000",
          "181319.457500",
          "181321.465000",
          "181323.475000",
          "181325.482500",
          "181327.490000",
          "181329.497500",
          "181331.505000",
          "181333.515000",
          "181335.522500",
          "181337.530000",
          "181339.537500",
          "181341.545000",
          "181343.555000",
          "181345.562500",
          "181347.570000",
          "181349.577500",
          "181351.587500",
          "181353.595000",
          "181355.602500",
          "181357.610000",
          "181359.617500",
          "181401.627500",
          "181403.635000",
          "181405.642500",
          "181407.650000",
          "181409.657500",
          "181411.667500",
          "181413.675000",
          "181415.682500",
          "181417.690000",
          "181419.697500",
          "181421.707500",
          "181423.715000",
          "181425.722500",
          "181427.730000",
          "181429.740000",
          "181431.747500",
          "181433.755000",
          "181435.762500",
          "181437.770000",
          "181439.780000",
          "181441.787500",
          "181443.795000",
          "181445.802500",
          "181447.810000",
          "181449.820000",
          "181451.827500",
          "181453.835000"
        ],
        "ContentTime": [
          "181014.750000",
          "181014.750000",
          "181014.750000",
          "181014.750000",
          "181014.750000",
          "181014.765000",
          "181014.765000",
          "181014.765000",
          "181014.781000",
          "181014.781000",
          "181014.781000",
          "181014.781000",
          "181014.781000",
          "181014.781000",
          "181014.796000",
          "181014.796000",
          "181014.796000",
          "181014.796000",
          "181014.796000",
          "181014.812000",
          "181014.812000",
          "181014.812000",
          "181014.812000",
          "181014.828000",
          "181054.734000",
          "181054.734000",
          "181054.734000",
          "181054.734000",
          "181054.750000",
          "181054.750000",
          "181054.750000",
          "181054.750000",
          "181054.750000",
          "181054.750000",
          "181054.750000",
          "181054.765000",
          "181054.765000",
          "181054.765000",
          "181054.765000",
          "181054.765000",
          "181054.765000",
          "181054.781000",
          "181054.781000",
          "181054.781000",
          "181134.734000",
          "181134.734000",
          "181134.734000",
          "181134.734000",
          "181134.750000",
          "181134.750000",
          "181134.750000",
          "181134.750000",
          "181134.750000",
          "181134.750000",
          "181134.765000",
          "181134.765000",
          "181134.781000",
          "181134.781000",
          "181134.781000",
          "181134.781000",
          "181134.796000",
          "181134.796000",
          "181134.796000",
          "181134.796000",
          "181214.734000",
          "181214.734000",
          "181214.734000",
          "181214.750000",
          "181214.750000",
          "181214.750000",
          "181214.750000",
          "181214.750000",
          "181214.750000",
          "181214.765000",
          "181214.765000",
          "181214.765000",
          "181214.765000",
          "181214.765000",
          "181214.765000",
          "181214.781000",
          "181214.781000",
          "181214.781000",
          "181214.781000",
          "181214.781000",
          "181254.734000",
          "181254.734000",
          "181254.734000",
          "181254.734000",
          "181254.750000",
          "181254.750000",
          "181254.750000",
          "181254.750000",
          "181254.750000",
          "181254.750000",
          "181254.765000",
          "181254.765000",
          "181254.765000",
          "181254.765000",
          "181254.765000",
          "181254.781000",
          "181254.781000",
          "181254.781000",
          "181254.781000",
          "181254.781000",
          "181334.734000",
          "181334.734000",
          "181334.734000",
          "181334.734000",
          "181334.750000",
          "181334.750000",
          "181334.750000",
          "181334.750000",
          "181334.750000",
          "181334.750000",
          "181334.765000",
          "181334.765000",
          "181334.765000",
          "181334.765000",
          "181334.765000",
          "181334.765000",
          "181334.781000",
          "181334.781000",
          "181334.781000",
          "181334.796000",
          "181414.734000",
          "181414.734000",
          "181414.734000",
          "181414.750000",
          "181414.750000",
          "181414.750000",
          "181414.750000",
          "181414.765000",
          "181414.765000",
          "181414.765000",
          "181414.765000",
          "181414.781000",
          "181414.781000",
          "181414.781000",
          "181414.781000",
          "181414.781000",
          "181414.781000",
          "181414.796000",
          "181414.796000",
          "181414.796000",
          "181454.421000",
          "181454.421000",
          "181454.421000",
          "181454.421000",
          "181454.421000",
          "181454.437000",
          "181454.437000",
          "181454.437000",
          "181454.437000",
          "181454.437000",
          "181454.453000",
          "181454.453000",
          "181454.453000",
          "181454.453000",
          "181454.453000",
          "181454.453000",
          "181454.468000",
          "181454.468000",
          "181454.468000",
          "181454.468000"
        ],
        "InstanceCreationTime": [
          "181014.750000",
          "181014.750000",
          "181014.750000",
          "181014.750000",
          "181014.750000",
          "181014.765000",
          "181014.765000",
          "181014.765000",
          "181014.781000",
          "181014.781000",
          "181014.781000",
          "181014.781000",
          "181014.781000",
          "181014.781000",
          "181014.796000",
          "181014.796000",
          "181014.796000",
          "181014.796000",
          "181014.796000",
          "181014.812000",
          "181014.812000",
          "181014.812000",
          "181014.812000",
          "181014.828000",
          "181054.734000",
          "181054.734000",
          "181054.734000",
          "181054.734000",
          "181054.750000",
          "181054.750000",
          "181054.750000",
          "181054.750000",
          "181054.750000",
          "181054.750000",
          "181054.750000",
          "181054.765000",
          "181054.765000",
          "181054.765000",
          "181054.765000",
          "181054.765000",
          "181054.765000",
          "181054.781000",
          "181054.781000",
          "181054.781000",
          "181134.734000",
          "181134.734000",
          "181134.734000",
          "181134.734000",
          "181134.750000",
          "181134.750000",
          "181134.750000",
          "181134.750000",
          "181134.750000",
          "181134.750000",
          "181134.765000",
          "181134.765000",
          "181134.781000",
          "181134.781000",
          "181134.781000",
          "181134.781000",
          "181134.796000",
          "181134.796000",
          "181134.796000",
          "181134.796000",
          "181214.734000",
          "181214.734000",
          "181214.734000",
          "181214.750000",
          "181214.750000",
          "181214.750000",
          "181214.750000",
          "181214.750000",
          "181214.750000",
          "181214.765000",
          "181214.765000",
          "181214.765000",
          "181214.765000",
          "181214.765000",
          "181214.765000",
          "181214.781000",
          "181214.781000",
          "181214.781000",
          "181214.781000",
          "181214.781000",
          "181254.734000",
          "181254.734000",
          "181254.734000",
          "181254.734000",
          "181254.750000",
          "181254.750000",
          "181254.750000",
          "181254.750000",
          "181254.750000",
          "181254.750000",
          "181254.765000",
          "181254.765000",
          "181254.765000",
          "181254.765000",
          "181254.765000",
          "181254.781000",
          "181254.781000",
          "181254.781000",
          "181254.781000",
          "181254.781000",
          "181334.734000",
          "181334.734000",
          "181334.734000",
          "181334.734000",
          "181334.750000",
          "181334.750000",
          "181334.750000",
          "181334.750000",
          "181334.750000",
          "181334.750000",
          "181334.765000",
          "181334.765000",
          "181334.765000",
          "181334.765000",
          "181334.765000",
          "181334.765000",
          "181334.781000",
          "181334.781000",
          "181334.781000",
          "181334.796000",
          "181414.734000",
          "181414.734000",
          "181414.734000",
          "181414.750000",
          "181414.750000",
          "181414.750000",
          "181414.750000",
          "181414.765000",
          "181414.765000",
          "181414.765000",
          "181414.765000",
          "181414.781000",
          "181414.781000",
          "181414.781000",
          "181414.781000",
          "181414.781000",
          "181414.781000",
          "181414.796000",
          "181414.796000",
          "181414.796000",
          "181454.421000",
          "181454.421000",
          "181454.421000",
          "181454.421000",
          "181454.421000",
          "181454.437000",
          "181454.437000",
          "181454.437000",
          "181454.437000",
          "181454.437000",
          "181454.453000",
          "181454.453000",
          "181454.453000",
          "181454.453000",
          "181454.453000",
          "181454.453000",
          "181454.468000",
          "181454.468000",
          "181454.468000",
          "181454.468000"
        ],
        "InstanceNumber": [
          1,
          2,
          3,
          4,
          5,
          6,
          7,
          8,
          9,
          10,
          11,
          12,
          13,
          14,
          15,
          16,
          17,
          18,
          19,
          20,
          21,
          22,
          23,
          24,
          25,
          26,
          27,
          28,
          29,
          30,
          31,
          32,
          33,
          34,
          35,
          36,
          37,
          38,
          39,
          40,
          41,
          42,
          43,
          44,
          45,
          46,
          47,
          48,
          49,
          50,
          51,
          52,
          53,
          54,
          55,
          56,
          57,
          58,
          59,
          60,
          61,
          62,
          63,
          64,
          65,
          66,
          67,
          68,
          69,
          70,
          71,
          72,
          73,
          74,
          75,
          76,
          77,
          78,
          79,
          80,
          81,
          82,
          83,
          84,
          85,
          86,
          87,
          88,
          89,
          90,
          91,
          92,
          93,
          94,
          95,
          96,
          97,
          98,
          99,
          100,
          101,
          102,
          103,
          104,
          105,
          106,
          107,
          108,
          109,
          110,
          111,
          112,
          113,
          114,
          115,
          116,
          117,
          118,
          119,
          120,
          121,
          122,
          123,
          124,
          125,
          126,
          127,
          128,
          129,
          130,
          131,
          132,
          133,
          134,
          135,
          136,
          137,
          138,
          139,
          140,
          141,
          142,
          143,
          144,
          145,
          146,
          147,
          148,
          149,
          150,
          151,
          152,
          153,
          154,
          155,
          156,
          157,
          158,
          159,
          160,
          161,
          162,
          163,
          164
        ],
        "LargestImagePixelValue": [
          3204,
          3226,
          3209,
          3207,
          3233,
          3189,
          3204,
          3200,
          3214,
          3208,
          3214,
          3201,
          3206,
          3183,
          3236,
          3249,
          3216,
          3253,
          3271,
          3233,
          3273,
          3277,
          3306,
          3296,
          3279,
          3285,
          3272,
          3309,
          3298,
          3270,
          3293,
          3307,
          3318,
          3242,
          3188,
          3163,
          3142,
          3223,
          3151,
          3219,
          3200,
          3179,
          3204,
          3197,
          3190,
          3177,
          3178,
          3212,
          3198,
          3268,
          3219,
          3223,
          3259,
          3242,
          3269,
          3258,
          3216,
          3259,
          3253,
          3177,
          3210,
          3153,
          3127,
          3151,
          3230,
          3136,
          3137,
          3146,
          3150,
          3123,
          3166,
          3184,
          3128,
          3135,
          3157,
          3109,
          3140,
          3198,
          3144,
          3144,
          3182,
          3173,
          3144,
          3158,
          3160,
          3144,
          3143,
          3149,
          3169,
          3125,
          3137,
          3185,
          3168,
          3146,
          3181,
          3131,
          3161,
          3166,
          3168,
          3135,
          3139,
          3186,
          3159,
          3149,
          3184,
          3165,
          3140,
          3138,
          3194,
          3172,
          3215,
          3202,
          3240,
          3190,
          3215,
          3190,
          3178,
          3219,
          3211,
          3231,
          3197,
          3178,
          3219,
          3168,
          3194,
          3176,
          3188,
          3182,
          3167,
          3208,
          3195,
          3169,
          3165,
          3224,
          3183,
          3166,
          3226,
          3228,
          3255,
          3274,
          3292,
          3241,
          3254,
          3269,
          3241,
          3271,
          3159,
          3218,
          3231,
          3275,
          3264,
          3318,
          3268,
          3246,
          3325,
          3303,
          3314,
          3314,
          3333,
          3330,
          3320,
          3369,
          3295,
          3326
        ],
        "WindowCenter": [
          728.0,
          728.0,
          728.0,
          727.0,
          727.0,
          727.0,
          728.0,
          729.0,
          728.0,
          726.0,
          726.0,
          727.0,
          727.0,
          726.0,
          726.0,
          727.0,
          727.0,
          726.0,
          725.0,
          725.0,
          725.0,
          725.0,
          725.0,
          726.0,
          727.0,
          727.0,
          728.0,
          729.0,
          728.0,
          728.0,
          728.0,
          728.0,
          728.0,
          728.0,
          730.0,
          730.0,
          728.0,
          727.0,
          726.0,
          727.0,
          727.0,
          727.0,
          727.0,
          728.0,
          728.0,
          727.0,
          726.0,
          726.0,
          726.0,
          727.0,
          726.0,
          726.0,
          727.0,
          726.0,
          726.0,
          727.0,
          728.0,
          728.0,
          727.0,
          726.0,
          727.0,
          728.0,
          728.0,
          726.0,
          726.0,
          727.0,
          729.0,
          729.0,
          728.0,
          727.0,
          728.0,
          728.0,
          728.0,
          728.0,
          728.0,
          728.0,
          728.0,
          728.0,
          727.0,
          726.0,
          727.0,
          728.0,
          728.0,
          727.0,
          727.0,
          726.0,
          726.0,
          726.0,
          726.0,
          726.0,
          727.0,
          727.0,
          726.0,
          727.0,
          727.0,
          727.0,
          727.0,
          728.0,
          728.0,
          728.0,
          728.0,
          728.0,
          728.0,
          727.0,
          727.0,
          728.0,
          728.0,
          728.0,
          727.0,
          727.0,
          726.0,
          727.0,
          727.0,
          726.0,
          728.0,
          727.0,
          727.0,
          727.0,
