{
  "aor": 0.0020275,
  "aqi": 0.006464866402439024,
  "bids_meta": {
    "AcquisitionMatrixPE": 96,
    "AcquisitionNumber": 1,
    "AcquisitionTime": "18:03:16.442500",
    "BandwidthPerPixelPhaseEncode": 52.083,
    "BaseResolution": 96,
    "BodyPartExamined": "HEAD",
    "ConversionSoftware": "dcm2niix",
    "ConversionSoftwareVersion": "v1.0.20180622 GCC6.3.0",
    "DerivedVendorReportedEchoSpacing": 0.000600004,
    "DeviceSerialNumber": "18926",
    "DwellTime": 2.6e-06,
    "EchoTime": 0.025,
    "EffectiveEchoSpacing": 0.000200001,
    "FlipAngle": 50,
    "ImageOrientationPatientDICOM": [
      0.999992,
      0.00067012,
      0.00404905,
      2.11009e-10,
      0.98658,
      -0.16328
    ],
    "ImageType": [
      "ORIGINAL",
      "PRIMARY",
      "M",
      "ND",
      "ECHO",
      "00",
      "MOSAIC"
    ],
    "InPlanePhaseEncodingDirectionDICOM": "ROW",
    "InstitutionName": "NIMH",
    "InstitutionalDepartmentName": "Department",
    "MRAcquisitionType": "2D",
    "MagneticFieldStrength": 6.98,
    "Manufacturer": "Siemens",
    "ManufacturersModelName": "Investigational_Device_7T",
    "Modality": "MR",
    "ParallelReductionFactorInPlane": 3,
    "PartialFourier": 1,
    "PatientPosition": "HFS",
    "PercentPhaseFOV": 100,
    "PhaseEncodingDirection": "i",
    "PhaseEncodingSteps": 94,
    "PhaseResolution": 1,
    "PixelBandwidth": 2003,
    "ProcedureStepDescription": "MRI_Procedure_Limited",
    "ProtocolName": "NIH_EPI_2.0iso_TR2_Run06",
    "PulseSequenceDetails": "%CustomerSeq%_inati_nih_epi",
    "ReceiveCoilName": "32Ch_Head_7T",
    "ReconMatrixPE": 96,
    "RepetitionTime": 2,
    "SAR": 0.0825282,
    "ScanningSequence": "EP",
    "SequenceName": "epfid2d1_96",
    "SequenceVariant": "SK",
    "SeriesDescription": "NIH_EPI_2.0iso_TR2_Run06",
    "SeriesNumber": 11,
    "ShimSetting": [
      -50,
      218,
      853,
      1213,
      -183,
      571,
      69,
      -438
    ],
    "SliceThickness": 2,
    "SliceTiming": [
      1.0025,
      0,
      1.04,
      0.0375,
      1.0775,
      0.075,
      1.115,
      0.11,
      1.1525,
      0.1475,
      1.19,
      0.185,
      1.2275,
      0.2225,
      1.2625,
      0.26,
      1.3,
      0.2975,
      1.3375,
      0.335,
      1.375,
      0.3725,
      1.4125,
      0.4075,
      1.45,
      0.445,
      1.4875,
      0.4825,
      1.525,
      0.52,
      1.56,
      0.5575,
      1.5975,
      0.595,
      1.635,
      0.6325,
      1.6725,
      0.67,
      1.71,
      0.705,
      1.7475,
      0.7425,
      1.785,
      0.78,
      1.8225,
      0.8175,
      1.8575,
      0.855,
      1.895,
      0.8925,
      1.9325,
      0.93,
      1.97,
      0.9675
    ],
    "SoftwareVersions": "syngo_MR_B17",
    "SpacingBetweenSlices": 2,
    "StationName": "FMRIFD7T",
    "TaskName": "HalfFovNoTask",
    "TotalReadoutTime": 0.0190001,
    "TxRefAmp": 331,
    "dataset": "ds001555",
    "dcmmeta_affine": [
      [
        -1.9999831914901733,
        4.2201880878778297e-10,
        0.008208253420889378,
        95.76705169677734
      ],
      [
        -0.0013402394251897931,
        1.973159670829773,
        -0.32655632495880127,
        -58.3952751159668
      ],
      [
        0.008098097518086433,
        0.32655906677246094,
        1.9731431007385254,
        -41.57032775878906
      ],
      [
        0.0,
        0.0,
        0.0,
        1.0
      ]
    ],
    "dcmmeta_reorient_transform": [
      [
        0.0,
        -1.0,
        0.0,
        95.0
      ],
      [
        1.0,
        0.0,
        0.0,
        0.0
      ],
      [
        0.0,
        0.0,
        1.0,
        0.0
      ],
      [
        0.0,
        0.0,
        0.0,
        1.0
      ]
    ],
    "dcmmeta_shape": [
      96,
      96,
      54,
      164
    ],
    "dcmmeta_slice_dim": 2,
    "dcmmeta_version": 0.6,
    "global": {
      "const": {
        "AcquisitionMatrix": [
          0,
          96,
          96,
          0
        ],
        "Allergies": "No Known Allergies",
        "AngioFlag": "N",
        "BitsAllocated": 16,
        "BitsStored": 12,
        "BodyPartExamined": "HEAD",
        "Columns": 768,
        "EchoNumbers": 1,
        "EchoTime": 25.0,
        "EchoTrainLength": 1,
        "FlipAngle": 50.0,
        "HighBit": 11,
        "ImageOrientationPatient": [
          0.99999157803662,
          0.00067011969073,
          0.00404904870684,
          2.110094e-10,
          0.98657984636313,
          -0.1632795356133
        ],
        "ImagePositionPatient": [
          -767.761392775,
          -792.48687407585,
          96.455670438306
        ],
        "ImageType": [
          "ORIGINAL",
          "PRIMARY",
          "M",
          "ND",
          "ECHO_00",
          "MOSAIC"
        ],
        "ImagedNucleus": "1H",
        "ImagingFrequency": 297.20517,
        "InPlanePhaseEncodingDirection": "ROW",
        "LargestImagePixelValue": 4095,
        "MRAcquisitionType": "2D",
        "MagneticFieldStrength": 6.98,
        "Manufacturer": "SIEMENS",
        "ManufacturerModelName": "Investigational_Device_7T",
        "Modality": "MR",
        "NumberOfAverages": 1.0,
        "NumberOfPhaseEncodingSteps": 94,
        "PercentPhaseFieldOfView": 100.0,
        "PercentSampling": 100.0,
        "PerformedProcedureStepStartTime": "170131.504000",
        "PhotometricInterpretation": "MONOCHROME2",
        "PixelBandwidth": 2003.0,
        "PixelRepresentation": 0,
        "PixelSpacing": [
          2.0,
          2.0
        ],
        "PositionReferenceIndicator": "",
        "ProcedureCodeSequence": [
          {
            "CodeMeaning": "MRI Procedure Limited",
            "CodeValue": "MI01491",
            "CodingSchemeDesignator": "USA Standard",
            "ContextIdentifier": "4000100956"
          }
        ],
        "ProtocolName": "NIH_EPI_2.0iso_TR2_Run06",
        "ReferencedStudySequence": [
          {
            "ReferencedSOPClassUID": "1.2.840.10008.3.1.2.3.1",
            "ReferencedSOPInstanceUID": "1.2.840.113564.9.1.2723958737.61.2.5000066720"
          }
        ],
        "RepetitionTime": 2000.0,
        "RequestedProcedureCodeSequence": [
          {
            "CodeMeaning": "MRI Procedure Limited",
            "CodeValue": "MI01491",
            "CodingSchemeDesignator": "USA Standard",
            "ContextIdentifier": "4000100956"
          }
        ],
        "RequestingService": "MHMI",
        "Rows": 768,
        "SAR": 0.08252816967743,
        "SamplesPerPixel": 1,
        "ScanningSequence": "EP",
        "SequenceName": "epfid2d1_96",
        "SequenceVariant": "SK",
        "SeriesDescription": "NIH_EPI_2.0iso_TR2_Run06",
        "SeriesNumber": 11,
        "SliceLocation": -31.084389907735,
        "SliceThickness": 2.0,
        "SmallestImagePixelValue": 0,
        "SoftwareVersions": "syngo MR B17",
        "SpacingBetweenSlices": 2.0000000184226,
        "TransmitCoilName": "32Ch_Head_7T",
        "VariableFlipAngleFlag": "N",
        "WindowCenterWidthExplanation": "Algo1",
        "dBdt": 0.0
      },
      "slices": {}
    },
    "modality": "bold",
    "run_id": 8,
    "session_id": "03",
    "subject_id": "001",
    "task_id": "HalfFovNoTask",
    "time": {
      "samples": {
        "AcquisitionNumber": [
          1,
          2,
          3,
          4,
          5,
          6,
          7,
          8,
          9,
          10,
          11,
          12,
          13,
          14,
          15,
          16,
          17,
          18,
          19,
          20,
          21,
          22,
          23,
          24,
          25,
          26,
          27,
          28,
          29,
          30,
          31,
          32,
          33,
          34,
          35,
          36,
          37,
          38,
          39,
          40,
          41,
          42,
          43,
          44,
          45,
          46,
          47,
          48,
          49,
          50,
          51,
          52,
          53,
          54,
          55,
          56,
          57,
          58,
          59,
          60,
          61,
          62,
          63,
          64,
          65,
          66,
          67,
          68,
          69,
          70,
          71,
          72,
          73,
          74,
          75,
          76,
          77,
          78,
          79,
          80,
          81,
          82,
          83,
          84,
          85,
          86,
          87,
          88,
          89,
          90,
          91,
          92,
          93,
          94,
          95,
          96,
          97,
          98,
          99,
          100,
          101,
          102,
          103,
          104,
          105,
          106,
          107,
          108,
          109,
          110,
          111,
          112,
          113,
          114,
          115,
          116,
          117,
          118,
          119,
          120,
          121,
          122,
          123,
          124,
          125,
          126,
          127,
          128,
          129,
          130,
          131,
          132,
          133,
          134,
          135,
          136,
          137,
          138,
          139,
          140,
          141,
          142,
          143,
          144,
          145,
          146,
          147,
          148,
          149,
          150,
          151,
          152,
          153,
          154,
          155,
          156,
          157,
          158,
          159,
          160,
          161,
          162,
          163,
          164
        ],
        "AcquisitionTime": [
          "180316.442500",
          "180320.460000",
          "180322.467500",
          "180324.475000",
          "180326.482500",
          "180328.492500",
          "180330.500000",
          "180332.507500",
          "180334.515000",
          "180336.525000",
          "180338.532500",
          "180340.540000",
          "180342.547500",
          "180344.555000",
          "180346.565000",
          "180348.572500",
          "180350.580000",
          "180352.587500",
          "180354.595000",
          "180356.605000",
          "180358.612500",
          "180400.620000",
          "180402.627500",
          "180404.635000",
          "180406.645000",
          "180408.652500",
          "180410.660000",
          "180412.667500",
          "180414.677500",
          "180416.685000",
          "180418.692500",
          "180420.700000",
          "180422.707500",
          "180424.717500",
          "180426.725000",
          "180428.732500",
          "180430.740000",
          "180432.747500",
          "180434.757500",
          "180436.765000",
          "180438.772500",
          "180440.780000",
          "180442.790000",
          "180444.797500",
          "180446.805000",
          "180448.812500",
          "180450.820000",
          "180452.830000",
          "180454.837500",
          "180456.845000",
          "180458.852500",
          "180500.860000",
          "180502.870000",
          "180504.877500",
          "180506.885000",
          "180508.892500",
          "180510.902500",
          "180512.910000",
          "180514.917500",
          "180516.925000",
          "180518.932500",
          "180520.942500",
          "180522.950000",
          "180524.957500",
          "180526.965000",
          "180528.972500",
          "180530.982500",
          "180532.990000",
          "180534.997500",
          "180537.005000",
          "180539.012500",
          "180541.022500",
          "180543.030000",
          "180545.037500",
          "180547.045000",
          "180549.055000",
          "180551.062500",
          "180553.070000",
          "180555.077500",
          "180557.085000",
          "180559.095000",
          "180601.102500",
          "180603.110000",
          "180605.117500",
          "180607.125000",
          "180609.135000",
          "180611.142500",
          "180613.150000",
          "180615.157500",
          "180617.167500",
          "180619.175000",
          "180621.182500",
          "180623.190000",
          "180625.197500",
          "180627.207500",
          "180629.215000",
          "180631.222500",
          "180633.230000",
          "180635.237500",
          "180637.247500",
          "180639.255000",
          "180641.262500",
          "180643.270000",
          "180645.280000",
          "180647.287500",
          "180649.295000",
          "180651.302500",
          "180653.310000",
          "180655.320000",
          "180657.327500",
          "180659.335000",
          "180701.342500",
          "180703.350000",
          "180705.360000",
          "180707.367500",
          "180709.375000",
          "180711.382500",
          "180713.390000",
          "180715.400000",
          "180717.407500",
          "180719.415000",
          "180721.422500",
          "180723.432500",
          "180725.440000",
          "180727.447500",
          "180729.455000",
          "180731.462500",
          "180733.472500",
          "180735.480000",
          "180737.487500",
          "180739.495000",
          "180741.502500",
          "180743.512500",
          "180745.520000",
          "180747.527500",
          "180749.535000",
          "180751.545000",
          "180753.552500",
          "180755.560000",
          "180757.567500",
          "180759.575000",
          "180801.585000",
          "180803.592500",
          "180805.600000",
          "180807.607500",
          "180809.615000",
          "180811.625000",
          "180813.632500",
          "180815.640000",
          "180817.647500",
          "180819.657500",
          "180821.665000",
          "180823.672500",
          "180825.680000",
          "180827.687500",
          "180829.697500",
          "180831.705000",
          "180833.712500",
          "180835.720000",
          "180837.727500",
          "180839.737500",
          "180841.745000",
          "180843.752500",
          "180845.760000"
        ],
        "ContentTime": [
          "180343.238000",
          "180343.238000",
          "180343.238000",
          "180343.254000",
          "180343.254000",
          "180343.254000",
          "180343.254000",
          "180343.254000",
          "180343.254000",
          "180343.254000",
          "180343.269000",
          "180343.269000",
          "180423.222000",
          "180423.222000",
          "180423.238000",
          "180423.238000",
          "180423.238000",
          "180423.238000",
          "180423.254000",
          "180423.254000",
          "180423.254000",
          "180423.254000",
          "180423.254000",
          "180423.254000",
          "180423.254000",
          "180423.269000",
          "180423.269000",
          "180423.269000",
          "180423.269000",
          "180423.269000",
          "180423.269000",
          "180423.269000",
          "180503.222000",
          "180503.222000",
          "180503.238000",
          "180503.238000",
          "180503.238000",
          "180503.238000",
          "180503.254000",
          "180503.254000",
          "180503.254000",
          "180503.254000",
          "180503.254000",
          "180503.254000",
          "180503.254000",
          "180503.269000",
          "180503.269000",
          "180503.269000",
          "180503.269000",
          "180503.269000",
          "180503.285000",
          "180503.285000",
          "180543.222000",
          "180543.222000",
          "180543.238000",
          "180543.238000",
          "180543.238000",
          "180543.238000",
          "180543.238000",
          "180543.238000",
          "180543.238000",
          "180543.254000",
          "180543.254000",
          "180543.254000",
          "180543.254000",
          "180543.254000",
          "180543.254000",
          "180543.269000",
          "180543.269000",
          "180543.269000",
          "180543.269000",
          "180543.269000",
          "180623.222000",
          "180623.222000",
          "180623.238000",
          "180623.238000",
          "180623.238000",
          "180623.238000",
          "180623.254000",
          "180623.254000",
          "180623.254000",
          "180623.254000",
          "180623.254000",
          "180623.254000",
          "180623.254000",
          "180623.269000",
          "180623.269000",
          "180623.269000",
          "180623.269000",
          "180623.269000",
          "180623.285000",
          "180623.285000",
          "180703.222000",
          "180703.222000",
          "180703.238000",
          "180703.238000",
          "180703.238000",
          "180703.238000",
          "180703.238000",
          "180703.254000",
          "180703.254000",
          "180703.254000",
          "180703.254000",
          "180703.254000",
          "180703.254000",
          "180703.254000",
          "180703.269000",
          "180703.269000",
          "180703.269000",
          "180703.269000",
          "180703.269000",
          "180703.269000",
          "180743.222000",
          "180743.222000",
          "180743.238000",
          "180743.238000",
          "180743.238000",
          "180743.238000",
          "180743.238000",
          "180743.254000",
          "180743.254000",
          "180743.254000",
          "180743.254000",
          "180743.254000",
          "180743.254000",
          "180743.254000",
          "180743.269000",
          "180743.269000",
          "180743.269000",
          "180743.269000",
          "180743.269000",
          "180743.269000",
          "180823.222000",
          "180823.238000",
          "180823.238000",
          "180823.238000",
          "180823.238000",
          "180823.238000",
          "180823.254000",
          "180823.254000",
          "180823.254000",
          "180823.254000",
          "180823.254000",
          "180823.254000",
          "180823.254000",
          "180823.269000",
          "180823.269000",
          "180823.269000",
          "180823.285000",
          "180823.285000",
          "180823.285000",
          "180823.285000",
          "180846.597000",
          "180846.597000",
          "180846.613000",
          "180846.613000",
          "180846.613000",
          "180846.613000",
          "180846.613000",
          "180846.613000",
          "180846.629000",
          "180846.629000",
          "180846.629000",
          "180846.629000"
        ],
        "InstanceCreationTime": [
          "180343.238000",
          "180343.238000",
          "180343.238000",
          "180343.254000",
          "180343.254000",
          "180343.254000",
          "180343.254000",
          "180343.254000",
          "180343.254000",
          "180343.254000",
          "180343.269000",
          "180343.269000",
          "180423.222000",
          "180423.222000",
          "180423.238000",
          "180423.238000",
          "180423.238000",
          "180423.238000",
          "180423.254000",
          "180423.254000",
          "180423.254000",
          "180423.254000",
          "180423.254000",
          "180423.254000",
          "180423.254000",
          "180423.269000",
          "180423.269000",
          "180423.269000",
          "180423.269000",
          "180423.269000",
          "180423.269000",
          "180423.269000",
          "180503.222000",
          "180503.222000",
          "180503.238000",
          "180503.238000",
          "180503.238000",
          "180503.238000",
          "180503.254000",
          "180503.254000",
          "180503.254000",
          "180503.254000",
          "180503.254000",
          "180503.254000",
          "180503.254000",
          "180503.269000",
          "180503.269000",
          "180503.269000",
          "180503.269000",
          "180503.269000",
          "180503.285000",
          "180503.285000",
          "180543.222000",
          "180543.222000",
          "180543.238000",
          "180543.238000",
          "180543.238000",
          "180543.238000",
          "180543.238000",
          "180543.238000",
          "180543.238000",
          "180543.254000",
          "180543.254000",
          "180543.254000",
          "180543.254000",
          "180543.254000",
          "180543.254000",
          "180543.269000",
          "180543.269000",
          "180543.269000",
          "180543.269000",
          "180543.269000",
          "180623.222000",
          "180623.222000",
          "180623.238000",
          "180623.238000",
          "180623.238000",
          "180623.238000",
          "180623.254000",
          "180623.254000",
          "180623.254000",
          "180623.254000",
          "180623.254000",
          "180623.254000",
          "180623.254000",
          "180623.269000",
          "180623.269000",
          "180623.269000",
          "180623.269000",
          "180623.269000",
          "180623.285000",
          "180623.285000",
          "180703.222000",
          "180703.222000",
          "180703.238000",
          "180703.238000",
          "180703.238000",
          "180703.238000",
          "180703.238000",
          "180703.254000",
          "180703.254000",
          "180703.254000",
          "180703.254000",
          "180703.254000",
          "180703.254000",
          "180703.254000",
          "180703.269000",
          "180703.269000",
          "180703.269000",
          "180703.269000",
          "180703.269000",
          "180703.269000",
          "180743.222000",
          "180743.222000",
          "180743.238000",
          "180743.238000",
          "180743.238000",
          "180743.238000",
          "180743.238000",
          "180743.254000",
          "180743.254000",
          "180743.254000",
          "180743.254000",
          "180743.254000",
          "180743.254000",
          "180743.254000",
          "180743.269000",
          "180743.269000",
          "180743.269000",
          "180743.269000",
          "180743.269000",
          "180743.269000",
          "180823.222000",
          "180823.238000",
          "180823.238000",
          "180823.238000",
          "180823.238000",
          "180823.238000",
          "180823.254000",
          "180823.254000",
          "180823.254000",
          "180823.254000",
          "180823.254000",
          "180823.254000",
          "180823.254000",
          "180823.269000",
          "180823.269000",
          "180823.269000",
          "180823.285000",
          "180823.285000",
          "180823.285000",
          "180823.285000",
          "180846.597000",
          "180846.597000",
          "180846.613000",
          "180846.613000",
          "180846.613000",
          "180846.613000",
          "180846.613000",
          "180846.613000",
          "180846.629000",
          "180846.629000",
          "180846.629000",
          "180846.629000"
        ],
        "InstanceNumber": [
          1,
          2,
          3,
          4,
          5,
          6,
          7,
          8,
          9,
          10,
          11,
          12,
          13,
          14,
          15,
          16,
          17,
          18,
          19,
          20,
          21,
          22,
          23,
          24,
          25,
          26,
          27,
          28,
          29,
          30,
          31,
          32,
          33,
          34,
          35,
          36,
          37,
          38,
          39,
          40,
          41,
          42,
          43,
          44,
          45,
          46,
          47,
          48,
          49,
          50,
          51,
          52,
          53,
          54,
          55,
          56,
          57,
          58,
          59,
          60,
          61,
          62,
          63,
          64,
          65,
          66,
          67,
          68,
          69,
          70,
          71,
          72,
          73,
          74,
          75,
          76,
          77,
          78,
          79,
          80,
          81,
          82,
          83,
          84,
          85,
          86,
          87,
          88,
          89,
          90,
          91,
          92,
          93,
          94,
          95,
          96,
          97,
          98,
          99,
          100,
          101,
          102,
          103,
          104,
          105,
          106,
          107,
          108,
          109,
          110,
          111,
          112,
          113,
          114,
          115,
          116,
          117,
          118,
          119,
          120,
          121,
          122,
          123,
          124,
          125,
          126,
          127,
          128,
          129,
          130,
          131,
          132,
          133,
          134,
          135,
          136,
          137,
          138,
          139,
          140,
          141,
          142,
          143,
          144,
          145,
          146,
          147,
          148,
          149,
          150,
          151,
          152,
          153,
          154,
          155,
          156,
          157,
          158,
          159,
          160,
          161,
          162,
          163,
          164
        ],
        "WindowCenter": [
          1227.0,
          1224.0,
          1222.0,
          1222.0,
          1227.0,
          1229.0,
          1227.0,
          1223.0,
          1221.0,
          1222.0,
          1223.0,
          1224.0,
          1224.0,
          1224.0,
          1222.0,
          1222.0,
          1221.0,
          1222.0,
          1224.0,
          1224.0,
          1220.0,
          1219.0,
          1220.0,
          1221.0,
          1223.0,
          1222.0,
          1224.0,
          1224.0,
          1223.0,
          1224.0,
          1224.0,
          1225.0,
          1224.0,
          1223.0,
          1223.0,
          1224.0,
          1224.0,
          1222.0,
          1220.0,
          1220.0,
          1222.0,
          1223.0,
          1222.0,
          1222.0,
          1221.0,
          1223.0,
          1225.0,
          1226.0,
          1224.0,
          1221.0,
          1222.0,
          1223.0,
          1222.0,
          1221.0,
          1219.0,
          1220.0,
          1224.0,
          1223.0,
          1222.0,
          1222.0,
          1223.0,
          1223.0,
          1224.0,
          1225.0,
          1226.0,
          1224.0,
          1224.0,
          1224.0,
          1226.0,
          1225.0,
          1223.0,
          1222.0,
          1221.0,
          1222.0,
          1223.0,
          1223.0,
          1224.0,
          1223.0,
          1222.0,
          1223.0,
          1225.0,
          1224.0,
          1227.0,
          1225.0,
          1226.0,
          1227.0,
          1227.0,
          1226.0,
          1225.0,
          1225.0,
          1227.0,
          1225.0,
          1224.0,
          1223.0,
          1222.0,
          1222.0,
          1222.0,
          1222.0,
          1222.0,
          1222.0,
          1224.0,
          1224.0,
          1225.0,
          1225.0,
          1224.0,
          1223.0,
          1224.0,
          1224.0,
          1223.0,
          1222.0,
          1222.0,
          1222.0,
          1222.0,
          1223.0,
          1222.0,
          1225.0,
          1224.0,
          1221.0,
          1221.0,
          1222.0,
          1222.0,
          1223.0,
          1224.0,
          1225.0,
          1226.0,
          1227.0,
          1228.0,
          1228.0,
          1227.0,
          1228.0,
          1226.0,
          1225.0,
          1225.0,
          1224.0,
          1224.0,
          1225.0,
          1223.0,
          1225.0,
          1226.0,
          1226.0,
          1225.0,
          1227.0,
          1227.0,
          1225.0,
          1222.0,
          1221.0,
          1225.0,
          1227.0,
          1225.0,
          1224.0,
          1223.0,
          1222.0,
          1221.0,
          1220.0,
          1216.0,
          1212.0,
          1212.0,
          1216.0,
          1219.0,
          1223.0,
          1226.0,
          1228.0,
          1227.0,
          1226.0
        ],
        "WindowWidth": [
          2919.0,
          2914.0,
          2911.0,
          2913.0,
          2922.0,
          2925.0,
          2920.0,
          2911.0,
          2906.0,
          2909.0,
          2911.0,
          2912.0,
          2913.0,
          2913.0,
          2911.0,
          2908.0,
          2905.0,
          2910.0,
          2916.0,
          2913.0,
          2905.0,
          2901.0,
          2905.0,
          2909.0,
          2910.0,
          2911.0,
          2914.0,
          2914.0,
          2913.0,
          2912.0,
          2913.0,
          2916.0,
          2912.0,
          2910.0,
          2911.0,
          2912.0,
          2914.0,
          2908.0,
          2904.0,
          2905.0,
          2908.0,
          2908.0,
          2906.0,
          2906.0,
          2908.0,
          2911.0,
          2917.0,
          2919.0,
          2914.0,
          2909.0,
          2909.0,
          2910.0,
          2908.0,
          2903.0,
          2901.0,
          2905.0,
          2910.0,
          2909.0,
          2908.0,
          2905.0,
          2907.0,
          2910.0,
          2911.0,
          2916.0,
          2916.0,
          2914.0,
          2914.0,
          2916.0,
          2915.0,
          2912.0,
          2909.0,
          2907.0,
          2905.0,
          2907.0,
          2910.0,
          2914.0,
          2913.0,
          2910.0,
          2912.0,
          2913.0,
          2914.0,
          2916.0,
          2918.0,
          2919.0,
