{
  "aor": 0.009749939024390244,
  "aqi": 0.007751105304878049,
  "bids_meta": {
    "AcquisitionMatrixPE": 96,
    "AcquisitionNumber": 1,
    "AcquisitionTime": "18:44:19.130000",
    "BandwidthPerPixelPhaseEncode": 52.083,
    "BaseResolution": 96,
    "BodyPartExamined": "HEAD",
    "ConversionSoftware": "dcm2niix",
    "ConversionSoftwareVersion": "v1.0.20180622 GCC6.3.0",
    "DerivedVendorReportedEchoSpacing": 0.000600004,
    "DeviceSerialNumber": "18926",
    "DwellTime": 2.6e-06,
    "EchoTime": 0.025,
    "EffectiveEchoSpacing": 0.000200001,
    "FlipAngle": 50,
    "ImageOrientationPatientDICOM": [
      0.999992,
      0.00067012,
      0.00404905,
      2.11009e-10,
      0.98658,
      -0.16328
    ],
    "ImageType": [
      "ORIGINAL",
      "PRIMARY",
      "M",
      "ND",
      "ECHO",
      "00",
      "MOSAIC"
    ],
    "InPlanePhaseEncodingDirectionDICOM": "ROW",
    "InstitutionName": "NIMH",
    "InstitutionalDepartmentName": "Department",
    "MRAcquisitionType": "2D",
    "MagneticFieldStrength": 6.98,
    "Manufacturer": "Siemens",
    "ManufacturersModelName": "Investigational_Device_7T",
    "Modality": "MR",
    "ParallelReductionFactorInPlane": 3,
    "PartialFourier": 1,
    "PatientPosition": "HFS",
    "PercentPhaseFOV": 100,
    "PhaseEncodingDirection": "i",
    "PhaseEncodingSteps": 94,
    "PhaseResolution": 1,
    "PixelBandwidth": 2003,
    "ProcedureStepDescription": "MRI_Procedure_Limited",
    "ProtocolName": "NIH_EPI_2.0iso_TR2_Run12",
    "PulseSequenceDetails": "%CustomerSeq%_inati_nih_epi",
    "ReceiveCoilName": "32Ch_Head_7T",
    "ReconMatrixPE": 96,
    "RepetitionTime": 2,
    "SAR": 0.0825282,
    "ScanningSequence": "EP",
    "SequenceName": "epfid2d1_96",
    "SequenceVariant": "SK",
    "SeriesDescription": "NIH_EPI_2.0iso_TR2_Run12",
    "SeriesNumber": 18,
    "ShimSetting": [
      -50,
      218,
      853,
      1213,
      -183,
      571,
      69,
      -438
    ],
    "SliceThickness": 2,
    "SliceTiming": [
      1.0025,
      0,
      1.04,
      0.0375,
      1.0775,
      0.075,
      1.115,
      0.11,
      1.1525,
      0.1475,
      1.19,
      0.185,
      1.2275,
      0.2225,
      1.2625,
      0.26,
      1.3,
      0.2975,
      1.3375,
      0.335,
      1.375,
      0.3725,
      1.4125,
      0.4075,
      1.45,
      0.445,
      1.4875,
      0.4825,
      1.525,
      0.52,
      1.56,
      0.5575,
      1.5975,
      0.595,
      1.635,
      0.6325,
      1.6725,
      0.6675,
      1.71,
      0.705,
      1.7475,
      0.7425,
      1.785,
      0.78,
      1.8225,
      0.8175,
      1.8575,
      0.855,
      1.895,
      0.8925,
      1.9325,
      0.93,
      1.97,
      0.965
    ],
    "SoftwareVersions": "syngo_MR_B17",
    "SpacingBetweenSlices": 2,
    "StationName": "FMRIFD7T",
    "TaskName": "HalfFovNoTask",
    "TotalReadoutTime": 0.0190001,
    "TxRefAmp": 331,
    "dataset": "ds001555",
    "dcmmeta_affine": [
      [
        -1.9999831914901733,
        4.2201880878778297e-10,
        0.008208253420889378,
        95.76705169677734
      ],
      [
        -0.0013402394251897931,
        1.973159670829773,
        -0.32655632495880127,
        -58.3952751159668
      ],
      [
        0.008098097518086433,
        0.32655906677246094,
        1.9731431007385254,
        -41.57032775878906
      ],
      [
        0.0,
        0.0,
        0.0,
        1.0
      ]
    ],
    "dcmmeta_reorient_transform": [
      [
        0.0,
        -1.0,
        0.0,
        95.0
      ],
      [
        1.0,
        0.0,
        0.0,
        0.0
      ],
      [
        0.0,
        0.0,
        1.0,
        0.0
      ],
      [
        0.0,
        0.0,
        0.0,
        1.0
      ]
    ],
    "dcmmeta_shape": [
      96,
      96,
      54,
      164
    ],
    "dcmmeta_slice_dim": 2,
    "dcmmeta_version": 0.6,
    "global": {
      "const": {
        "AcquisitionMatrix": [
          0,
          96,
          96,
          0
        ],
        "Allergies": "No Known Allergies",
        "AngioFlag": "N",
        "BitsAllocated": 16,
        "BitsStored": 12,
        "BodyPartExamined": "HEAD",
        "Columns": 768,
        "EchoNumbers": 1,
        "EchoTime": 25.0,
        "EchoTrainLength": 1,
        "FlipAngle": 50.0,
        "HighBit": 11,
        "ImageOrientationPatient": [
          0.99999157803662,
          0.00067011969073,
          0.00404904870684,
          2.110094e-10,
          0.98657984636313,
          -0.1632795356133
        ],
        "ImagePositionPatient": [
          -767.761392775,
          -792.48687407585,
          96.455670438306
        ],
        "ImageType": [
          "ORIGINAL",
          "PRIMARY",
          "M",
          "ND",
          "ECHO_00",
          "MOSAIC"
        ],
        "ImagedNucleus": "1H",
        "ImagingFrequency": 297.205251,
        "InPlanePhaseEncodingDirection": "ROW",
        "LargestImagePixelValue": 4095,
        "MRAcquisitionType": "2D",
        "MagneticFieldStrength": 6.98,
        "Manufacturer": "SIEMENS",
        "ManufacturerModelName": "Investigational_Device_7T",
        "Modality": "MR",
        "NumberOfAverages": 1.0,
        "NumberOfPhaseEncodingSteps": 94,
        "PercentPhaseFieldOfView": 100.0,
        "PercentSampling": 100.0,
        "PerformedProcedureStepStartTime": "170131.504000",
        "PhotometricInterpretation": "MONOCHROME2",
        "PixelBandwidth": 2003.0,
        "PixelRepresentation": 0,
        "PixelSpacing": [
          2.0,
          2.0
        ],
        "PositionReferenceIndicator": "",
        "ProcedureCodeSequence": [
          {
            "CodeMeaning": "MRI Procedure Limited",
            "CodeValue": "MI01491",
            "CodingSchemeDesignator": "USA Standard",
            "ContextIdentifier": "4000100956"
          }
        ],
        "ProtocolName": "NIH_EPI_2.0iso_TR2_Run12",
        "ReferencedStudySequence": [
          {
            "ReferencedSOPClassUID": "1.2.840.10008.3.1.2.3.1",
            "ReferencedSOPInstanceUID": "1.2.840.113564.9.1.2723958737.61.2.5000066720"
          }
        ],
        "RepetitionTime": 2000.0,
        "RequestedProcedureCodeSequence": [
          {
            "CodeMeaning": "MRI Procedure Limited",
            "CodeValue": "MI01491",
            "CodingSchemeDesignator": "USA Standard",
            "ContextIdentifier": "4000100956"
          }
        ],
        "RequestingService": "MHMI",
        "Rows": 768,
        "SAR": 0.08252816967743,
        "SamplesPerPixel": 1,
        "ScanningSequence": "EP",
        "SequenceName": "epfid2d1_96",
        "SequenceVariant": "SK",
        "SeriesDescription": "NIH_EPI_2.0iso_TR2_Run12",
        "SeriesNumber": 18,
        "SliceLocation": -31.084389907735,
        "SliceThickness": 2.0,
        "SmallestImagePixelValue": 0,
        "SoftwareVersions": "syngo MR B17",
        "SpacingBetweenSlices": 2.0000000184226,
        "TransmitCoilName": "32Ch_Head_7T",
        "VariableFlipAngleFlag": "N",
        "WindowCenterWidthExplanation": "Algo1",
        "dBdt": 0.0
      },
      "slices": {}
    },
    "modality": "bold",
    "run_id": 15,
    "session_id": "03",
    "subject_id": "001",
    "task_id": "HalfFovNoTask",
    "time": {
      "samples": {
        "AcquisitionNumber": [
          1,
          2,
          3,
          4,
          5,
          6,
          7,
          8,
          9,
          10,
          11,
          12,
          13,
          14,
          15,
          16,
          17,
          18,
          19,
          20,
          21,
          22,
          23,
          24,
          25,
          26,
          27,
          28,
          29,
          30,
          31,
          32,
          33,
          34,
          35,
          36,
          37,
          38,
          39,
          40,
          41,
          42,
          43,
          44,
          45,
          46,
          47,
          48,
          49,
          50,
          51,
          52,
          53,
          54,
          55,
          56,
          57,
          58,
          59,
          60,
          61,
          62,
          63,
          64,
          65,
          66,
          67,
          68,
          69,
          70,
          71,
          72,
          73,
          74,
          75,
          76,
          77,
          78,
          79,
          80,
          81,
          82,
          83,
          84,
          85,
          86,
          87,
          88,
          89,
          90,
          91,
          92,
          93,
          94,
          95,
          96,
          97,
          98,
          99,
          100,
          101,
          102,
          103,
          104,
          105,
          106,
          107,
          108,
          109,
          110,
          111,
          112,
          113,
          114,
          115,
          116,
          117,
          118,
          119,
          120,
          121,
          122,
          123,
          124,
          125,
          126,
          127,
          128,
          129,
          130,
          131,
          132,
          133,
          134,
          135,
          136,
          137,
          138,
          139,
          140,
          141,
          142,
          143,
          144,
          145,
          146,
          147,
          148,
          149,
          150,
          151,
          152,
          153,
          154,
          155,
          156,
          157,
          158,
          159,
          160,
          161,
          162,
          163,
          164
        ],
        "AcquisitionTime": [
          "184419.130000",
          "184423.147500",
          "184425.155000",
          "184427.162500",
          "184429.170000",
          "184431.180000",
          "184433.187500",
          "184435.195000",
          "184437.202500",
          "184439.210000",
          "184441.220000",
          "184443.227500",
          "184445.235000",
          "184447.242500",
          "184449.252500",
          "184451.260000",
          "184453.267500",
          "184455.275000",
          "184457.282500",
          "184459.292500",
          "184501.300000",
          "184503.307500",
          "184505.315000",
          "184507.322500",
          "184509.332500",
          "184511.340000",
          "184513.347500",
          "184515.355000",
          "184517.365000",
          "184519.372500",
          "184521.380000",
          "184523.387500",
          "184525.395000",
          "184527.405000",
          "184529.412500",
          "184531.420000",
          "184533.427500",
          "184535.435000",
          "184537.445000",
          "184539.452500",
          "184541.460000",
          "184543.467500",
          "184545.475000",
          "184547.485000",
          "184549.492500",
          "184551.500000",
          "184553.507500",
          "184555.517500",
          "184557.525000",
          "184559.532500",
          "184601.540000",
          "184603.547500",
          "184605.557500",
          "184607.565000",
          "184609.572500",
          "184611.580000",
          "184613.587500",
          "184615.597500",
          "184617.605000",
          "184619.612500",
          "184621.620000",
          "184623.630000",
          "184625.637500",
          "184627.645000",
          "184629.652500",
          "184631.660000",
          "184633.670000",
          "184635.677500",
          "184637.685000",
          "184639.692500",
          "184641.700000",
          "184643.710000",
          "184645.717500",
          "184647.725000",
          "184649.732500",
          "184651.742500",
          "184653.750000",
          "184655.757500",
          "184657.765000",
          "184659.772500",
          "184701.782500",
          "184703.790000",
          "184705.797500",
          "184707.805000",
          "184709.812500",
          "184711.822500",
          "184713.830000",
          "184715.837500",
          "184717.845000",
          "184719.852500",
          "184721.862500",
          "184723.870000",
          "184725.877500",
          "184727.885000",
          "184729.895000",
          "184731.902500",
          "184733.910000",
          "184735.917500",
          "184737.925000",
          "184739.935000",
          "184741.942500",
          "184743.950000",
          "184745.957500",
          "184747.965000",
          "184749.975000",
          "184751.982500",
          "184753.990000",
          "184755.997500",
          "184758.007500",
          "184800.015000",
          "184802.022500",
          "184804.030000",
          "184806.037500",
          "184808.047500",
          "184810.055000",
          "184812.062500",
          "184814.070000",
          "184816.077500",
          "184818.087500",
          "184820.095000",
          "184822.102500",
          "184824.110000",
          "184826.120000",
          "184828.127500",
          "184830.135000",
          "184832.142500",
          "184834.150000",
          "184836.160000",
          "184838.167500",
          "184840.175000",
          "184842.182500",
          "184844.190000",
          "184846.200000",
          "184848.207500",
          "184850.215000",
          "184852.222500",
          "184854.232500",
          "184856.240000",
          "184858.247500",
          "184900.255000",
          "184902.262500",
          "184904.272500",
          "184906.280000",
          "184908.287500",
          "184910.295000",
          "184912.302500",
          "184914.312500",
          "184916.320000",
          "184918.327500",
          "184920.335000",
          "184922.342500",
          "184924.352500",
          "184926.360000",
          "184928.367500",
          "184930.375000",
          "184932.385000",
          "184934.392500",
          "184936.400000",
          "184938.407500",
          "184940.415000",
          "184942.425000",
          "184944.432500",
          "184946.440000",
          "184948.447500"
        ],
        "ContentTime": [
          "184520.300000",
          "184520.300000",
          "184520.300000",
          "184520.300000",
          "184520.316000",
          "184520.316000",
          "184520.316000",
          "184520.316000",
          "184520.332000",
          "184520.332000",
          "184520.332000",
          "184520.332000",
          "184520.332000",
          "184520.332000",
          "184520.347000",
          "184520.347000",
          "184520.347000",
          "184520.347000",
          "184520.347000",
          "184520.347000",
          "184520.363000",
          "184520.363000",
          "184520.363000",
          "184520.363000",
          "184520.363000",
          "184520.363000",
          "184520.363000",
          "184520.379000",
          "184520.379000",
          "184600.269000",
          "184600.269000",
          "184600.285000",
          "184600.285000",
          "184600.285000",
          "184600.285000",
          "184600.285000",
          "184600.285000",
          "184600.300000",
          "184600.300000",
          "184600.300000",
          "184600.300000",
          "184600.300000",
          "184600.300000",
          "184600.316000",
          "184600.316000",
          "184600.316000",
          "184600.316000",
          "184600.316000",
          "184600.316000",
          "184640.269000",
          "184640.269000",
          "184640.285000",
          "184640.285000",
          "184640.285000",
          "184640.285000",
          "184640.285000",
          "184640.285000",
          "184640.300000",
          "184640.300000",
          "184640.300000",
          "184640.300000",
          "184640.316000",
          "184640.316000",
          "184640.316000",
          "184640.316000",
          "184640.316000",
          "184640.332000",
          "184640.332000",
          "184640.332000",
          "184720.269000",
          "184720.269000",
          "184720.285000",
          "184720.285000",
          "184720.285000",
          "184720.285000",
          "184720.285000",
          "184720.285000",
          "184720.300000",
          "184720.300000",
          "184720.300000",
          "184720.300000",
          "184720.300000",
          "184720.300000",
          "184720.300000",
          "184720.316000",
          "184720.316000",
          "184720.316000",
          "184720.316000",
          "184720.332000",
          "184800.269000",
          "184800.269000",
          "184800.285000",
          "184800.285000",
          "184800.285000",
          "184800.285000",
          "184800.300000",
          "184800.300000",
          "184800.300000",
          "184800.300000",
          "184800.300000",
          "184800.300000",
          "184800.300000",
          "184800.316000",
          "184800.316000",
          "184800.316000",
          "184800.316000",
          "184800.316000",
          "184800.316000",
          "184800.332000",
          "184840.269000",
          "184840.269000",
          "184840.285000",
          "184840.285000",
          "184840.285000",
          "184840.300000",
          "184840.300000",
          "184840.300000",
          "184840.300000",
          "184840.300000",
          "184840.300000",
          "184840.300000",
          "184840.316000",
          "184840.316000",
          "184840.316000",
          "184840.316000",
          "184840.316000",
          "184840.316000",
          "184840.332000",
          "184840.332000",
          "184920.269000",
          "184920.269000",
          "184920.285000",
          "184920.285000",
          "184920.285000",
          "184920.285000",
          "184920.285000",
          "184920.285000",
          "184920.300000",
          "184920.300000",
          "184920.300000",
          "184920.300000",
          "184920.300000",
          "184920.316000",
          "184920.316000",
          "184920.316000",
          "184920.316000",
          "184920.316000",
          "184920.332000",
          "184920.332000",
          "184949.050000",
          "184949.066000",
          "184949.066000",
          "184949.066000",
          "184949.066000",
          "184949.066000",
          "184949.066000",
          "184949.066000",
          "184949.082000",
          "184949.082000",
          "184949.082000",
          "184949.082000",
          "184949.097000",
          "184949.097000",
          "184949.097000"
        ],
        "InstanceCreationTime": [
          "184520.300000",
          "184520.300000",
          "184520.300000",
          "184520.300000",
          "184520.316000",
          "184520.316000",
          "184520.316000",
          "184520.316000",
          "184520.332000",
          "184520.332000",
          "184520.332000",
          "184520.332000",
          "184520.332000",
          "184520.332000",
          "184520.347000",
          "184520.347000",
          "184520.347000",
          "184520.347000",
          "184520.347000",
          "184520.347000",
          "184520.363000",
          "184520.363000",
          "184520.363000",
          "184520.363000",
          "184520.363000",
          "184520.363000",
          "184520.363000",
          "184520.379000",
          "184520.379000",
          "184600.269000",
          "184600.269000",
          "184600.285000",
          "184600.285000",
          "184600.285000",
          "184600.285000",
          "184600.285000",
          "184600.285000",
          "184600.300000",
          "184600.300000",
          "184600.300000",
          "184600.300000",
          "184600.300000",
          "184600.300000",
          "184600.316000",
          "184600.316000",
          "184600.316000",
          "184600.316000",
          "184600.316000",
          "184600.316000",
          "184640.269000",
          "184640.269000",
          "184640.285000",
          "184640.285000",
          "184640.285000",
          "184640.285000",
          "184640.285000",
          "184640.285000",
          "184640.300000",
          "184640.300000",
          "184640.300000",
          "184640.300000",
          "184640.316000",
          "184640.316000",
          "184640.316000",
          "184640.316000",
          "184640.316000",
          "184640.332000",
          "184640.332000",
          "184640.332000",
          "184720.269000",
          "184720.269000",
          "184720.285000",
          "184720.285000",
          "184720.285000",
          "184720.285000",
          "184720.285000",
          "184720.285000",
          "184720.300000",
          "184720.300000",
          "184720.300000",
          "184720.300000",
          "184720.300000",
          "184720.300000",
          "184720.300000",
          "184720.316000",
          "184720.316000",
          "184720.316000",
          "184720.316000",
          "184720.332000",
          "184800.269000",
          "184800.269000",
          "184800.285000",
          "184800.285000",
          "184800.285000",
          "184800.285000",
          "184800.300000",
          "184800.300000",
          "184800.300000",
          "184800.300000",
          "184800.300000",
          "184800.300000",
          "184800.300000",
          "184800.316000",
          "184800.316000",
          "184800.316000",
          "184800.316000",
          "184800.316000",
          "184800.316000",
          "184800.332000",
          "184840.269000",
          "184840.269000",
          "184840.285000",
          "184840.285000",
          "184840.285000",
          "184840.300000",
          "184840.300000",
          "184840.300000",
          "184840.300000",
          "184840.300000",
          "184840.300000",
          "184840.300000",
          "184840.316000",
          "184840.316000",
          "184840.316000",
          "184840.316000",
          "184840.316000",
          "184840.316000",
          "184840.332000",
          "184840.332000",
          "184920.269000",
          "184920.269000",
          "184920.285000",
          "184920.285000",
          "184920.285000",
          "184920.285000",
          "184920.285000",
          "184920.285000",
          "184920.300000",
          "184920.300000",
          "184920.300000",
          "184920.300000",
          "184920.300000",
          "184920.316000",
          "184920.316000",
          "184920.316000",
          "184920.316000",
          "184920.316000",
          "184920.332000",
          "184920.332000",
          "184949.050000",
          "184949.066000",
          "184949.066000",
          "184949.066000",
          "184949.066000",
          "184949.066000",
          "184949.066000",
          "184949.066000",
          "184949.082000",
          "184949.082000",
          "184949.082000",
          "184949.082000",
          "184949.097000",
          "184949.097000",
          "184949.097000"
        ],
        "InstanceNumber": [
          1,
          2,
          3,
          4,
          5,
          6,
          7,
          8,
          9,
          10,
          11,
          12,
          13,
          14,
          15,
          16,
          17,
          18,
          19,
          20,
          21,
          22,
          23,
          24,
          25,
          26,
          27,
          28,
          29,
          30,
          31,
          32,
          33,
          34,
          35,
          36,
          37,
          38,
          39,
          40,
          41,
          42,
          43,
          44,
          45,
          46,
          47,
          48,
          49,
          50,
          51,
          52,
          53,
          54,
          55,
          56,
          57,
          58,
          59,
          60,
          61,
          62,
          63,
          64,
          65,
          66,
          67,
          68,
          69,
          70,
          71,
          72,
          73,
          74,
          75,
          76,
          77,
          78,
          79,
          80,
          81,
          82,
          83,
          84,
          85,
          86,
          87,
          88,
          89,
          90,
          91,
          92,
          93,
          94,
          95,
          96,
          97,
          98,
          99,
          100,
          101,
          102,
          103,
          104,
          105,
          106,
          107,
          108,
          109,
          110,
          111,
          112,
          113,
          114,
          115,
          116,
          117,
          118,
          119,
          120,
          121,
          122,
          123,
          124,
          125,
          126,
          127,
          128,
          129,
          130,
          131,
          132,
          133,
          134,
          135,
          136,
          137,
          138,
          139,
          140,
          141,
          142,
          143,
          144,
          145,
          146,
          147,
          148,
          149,
          150,
          151,
          152,
          153,
          154,
          155,
          156,
          157,
          158,
          159,
          160,
          161,
          162,
          163,
          164
        ],
        "WindowCenter": [
          1231.0,
          1233.0,
          1235.0,
          1237.0,
          1236.0,
          1235.0,
          1235.0,
          1237.0,
          1236.0,
          1234.0,
          1233.0,
          1233.0,
          1233.0,
          1231.0,
          1230.0,
          1231.0,
          1231.0,
          1229.0,
          1227.0,
          1228.0,
          1230.0,
          1234.0,
          1236.0,
          1233.0,
          1232.0,
          1230.0,
          1234.0,
          1234.0,
          1232.0,
          1228.0,
          1226.0,
          1226.0,
          1227.0,
          1231.0,
          1231.0,
          1230.0,
          1225.0,
          1219.0,
          1216.0,
          1217.0,
          1220.0,
          1222.0,
          1223.0,
          1227.0,
          1229.0,
          1226.0,
          1232.0,
          1235.0,
          1235.0,
          1231.0,
          1229.0,
          1229.0,
          1230.0,
          1232.0,
          1235.0,
          1236.0,
          1236.0,
          1235.0,
          1234.0,
          1235.0,
          1234.0,
          1231.0,
          1230.0,
          1230.0,
          1229.0,
          1227.0,
          1225.0,
          1224.0,
          1225.0,
          1225.0,
          1224.0,
          1224.0,
          1227.0,
          1231.0,
          1231.0,
          1231.0,
          1233.0,
          1232.0,
          1231.0,
          1228.0,
          1228.0,
          1227.0,
          1228.0,
          1230.0,
          1231.0,
          1230.0,
          1230.0,
          1231.0,
          1231.0,
          1235.0,
          1234.0,
          1232.0,
          1229.0,
          1228.0,
          1229.0,
          1229.0,
          1229.0,
          1228.0,
          1226.0,
          1227.0,
          1227.0,
          1227.0,
          1226.0,
          1226.0,
          1227.0,
          1229.0,
          1231.0,
          1231.0,
          1231.0,
          1230.0,
          1231.0,
          1231.0,
          1233.0,
          1230.0,
          1229.0,
          1228.0,
          1228.0,
          1229.0,
          1228.0,
          1228.0,
          1230.0,
          1231.0,
          1230.0,
          1231.0,
          1228.0,
          1227.0,
          1225.0,
          1224.0,
          1224.0,
          1226.0,
          1223.0,
          1223.0,
          1222.0,
          1224.0,
          1227.0,
          1229.0,
          1232.0,
          1232.0,
          1233.0,
          1232.0,
          1232.0,
          1231.0,
          1231.0,
          1230.0,
          1228.0,
          1228.0,
          1229.0,
          1229.0,
          1228.0,
          1229.0,
          1228.0,
          1228.0,
          1230.0,
          1230.0,
          1229.0,
          1228.0,
          1228.0,
          1227.0,
          1227.0,
          1228.0,
          1230.0,
          1226.0,
          1230.0,
          1229.0
        ],
        "WindowWidth": [
          2909.0,
          2914.0,
          2922.0,
          2928.0,
          2923.0,
          2917.0,
          2922.0,
          2926.0,
          2923.0,
          2919.0,
          2915.0,
          2915.0,
          2916.0,
          2912.0,
          2909.0,
          2912.0,
          2911.0,
          2909.0,
          2903.0,
          2908.0,
          2915.0,
          2924.0,
          2923.0,
          2917.0,
          2916.0,
          2915.0,
          2921.0,
          2921.0,
          2914.0,
          2903.0,
          2899.0,
          2902.0,
          2905.0,
          2915.0,
          2912.0,
          2905.0,
          2893.0,
          2881.0,
          2876.0,
          2880.0,
          2887.0,
          2891.0,
          2896.0,
          2907.0,
          2911.0,
          2906.0,
          2913.0,
          2919.0,
          2923.0,
          2910.0,
          2905.0,
          2904.0,
          2909.0,
          2914.0,
          2920.0,
          2922.0,
          2921.0,
          2919.0,
          2918.0,
          2920.0,
          2915.0,
          2910.0,
          2910.0,
          2909.0,
          2905.0,
          2899.0,
          2898.0,
          2899.0,
          2897.0,
          2897.0,
          2895.0,
          2896.0,
          2903.0,
          2912.0,
          2910.0,
          2912.0,
          2918.0,
          2916.0,
          2912.0,
          2907.0,
          2903.0,
          2901.0,
          2905.0,
