{
  "aor": 0.010509817073170733,
  "aqi": 0.009932325731707317,
  "bids_meta": {
    "AcquisitionMatrixPE": 96,
    "AcquisitionNumber": 1,
    "AcquisitionTime": "18:10:38.555000",
    "BandwidthPerPixelPhaseEncode": 52.083,
    "BaseResolution": 96,
    "BodyPartExamined": "HEAD",
    "ConversionSoftware": "dcm2niix",
    "ConversionSoftwareVersion": "v1.0.20180622 GCC6.3.0",
    "DerivedVendorReportedEchoSpacing": 0.000600004,
    "DeviceSerialNumber": "18926",
    "DwellTime": 2.6e-06,
    "EchoTime": 0.025,
    "EffectiveEchoSpacing": 0.000200001,
    "FlipAngle": 50,
    "ImageOrientationPatientDICOM": [
      0.999992,
      0.00067012,
      0.00404905,
      2.11009e-10,
      0.98658,
      -0.16328
    ],
    "ImageType": [
      "ORIGINAL",
      "PRIMARY",
      "M",
      "ND",
      "ECHO",
      "00",
      "MOSAIC"
    ],
    "InPlanePhaseEncodingDirectionDICOM": "ROW",
    "InstitutionName": "NIMH",
    "InstitutionalDepartmentName": "Department",
    "MRAcquisitionType": "2D",
    "MagneticFieldStrength": 6.98,
    "Manufacturer": "Siemens",
    "ManufacturersModelName": "Investigational_Device_7T",
    "Modality": "MR",
    "ParallelReductionFactorInPlane": 3,
    "PartialFourier": 1,
    "PatientPosition": "HFS",
    "PercentPhaseFOV": 100,
    "PhaseEncodingDirection": "i",
    "PhaseEncodingSteps": 94,
    "PhaseResolution": 1,
    "PixelBandwidth": 2003,
    "ProcedureStepDescription": "MRI_Procedure_Limited",
    "ProtocolName": "NIH_EPI_2.0iso_TR2_Run07",
    "PulseSequenceDetails": "%CustomerSeq%_inati_nih_epi",
    "ReceiveCoilName": "32Ch_Head_7T",
    "ReconMatrixPE": 96,
    "RepetitionTime": 2,
    "SAR": 0.0825282,
    "ScanningSequence": "EP",
    "SequenceName": "epfid2d1_96",
    "SequenceVariant": "SK",
    "SeriesDescription": "NIH_EPI_2.0iso_TR2_Run07",
    "SeriesNumber": 12,
    "ShimSetting": [
      -50,
      218,
      853,
      1213,
      -183,
      571,
      69,
      -438
    ],
    "SliceThickness": 2,
    "SliceTiming": [
      1.005,
      0,
      1.0425,
      0.0375,
      1.08,
      0.075,
      1.1175,
      0.1125,
      1.1525,
      0.15,
      1.19,
      0.1875,
      1.2275,
      0.225,
      1.265,
      0.2625,
      1.3025,
      0.2975,
      1.34,
      0.335,
      1.3775,
      0.3725,
      1.415,
      0.41,
      1.45,
      0.4475,
      1.4875,
      0.485,
      1.525,
      0.5225,
      1.5625,
      0.56,
      1.6,
      0.595,
      1.6375,
      0.6325,
      1.675,
      0.67,
      1.7125,
      0.7075,
      1.7475,
      0.745,
      1.785,
      0.7825,
      1.8225,
      0.82,
      1.86,
      0.8575,
      1.8975,
      0.8925,
      1.935,
      0.93,
      1.9725,
      0.9675
    ],
    "SoftwareVersions": "syngo_MR_B17",
    "SpacingBetweenSlices": 2,
    "StationName": "FMRIFD7T",
    "TaskName": "HalfFovNoTask",
    "TotalReadoutTime": 0.0190001,
    "TxRefAmp": 331,
    "dataset": "ds001555",
    "dcmmeta_affine": [
      [
        -1.9999831914901733,
        4.2201880878778297e-10,
        0.008208253420889378,
        95.76705169677734
      ],
      [
        -0.0013402394251897931,
        1.973159670829773,
        -0.32655632495880127,
        -58.3952751159668
      ],
      [
        0.008098097518086433,
        0.32655906677246094,
        1.9731431007385254,
        -41.57032775878906
      ],
      [
        0.0,
        0.0,
        0.0,
        1.0
      ]
    ],
    "dcmmeta_reorient_transform": [
      [
        0.0,
        -1.0,
        0.0,
        95.0
      ],
      [
        1.0,
        0.0,
        0.0,
        0.0
      ],
      [
        0.0,
        0.0,
        1.0,
        0.0
      ],
      [
        0.0,
        0.0,
        0.0,
        1.0
      ]
    ],
    "dcmmeta_shape": [
      96,
      96,
      54,
      164
    ],
    "dcmmeta_slice_dim": 2,
    "dcmmeta_version": 0.6,
    "global": {
      "const": {
        "AcquisitionMatrix": [
          0,
          96,
          96,
          0
        ],
        "Allergies": "No Known Allergies",
        "AngioFlag": "N",
        "BitsAllocated": 16,
        "BitsStored": 12,
        "BodyPartExamined": "HEAD",
        "Columns": 768,
        "EchoNumbers": 1,
        "EchoTime": 25.0,
        "EchoTrainLength": 1,
        "FlipAngle": 50.0,
        "HighBit": 11,
        "ImageOrientationPatient": [
          0.99999157803662,
          0.00067011969073,
          0.00404904870684,
          2.110094e-10,
          0.98657984636313,
          -0.1632795356133
        ],
        "ImagePositionPatient": [
          -767.761392775,
          -792.48687407585,
          96.455670438306
        ],
        "ImageType": [
          "ORIGINAL",
          "PRIMARY",
          "M",
          "ND",
          "ECHO_00",
          "MOSAIC"
        ],
        "ImagedNucleus": "1H",
        "ImagingFrequency": 297.205187,
        "InPlanePhaseEncodingDirection": "ROW",
        "LargestImagePixelValue": 4095,
        "MRAcquisitionType": "2D",
        "MagneticFieldStrength": 6.98,
        "Manufacturer": "SIEMENS",
        "ManufacturerModelName": "Investigational_Device_7T",
        "Modality": "MR",
        "NumberOfAverages": 1.0,
        "NumberOfPhaseEncodingSteps": 94,
        "PercentPhaseFieldOfView": 100.0,
        "PercentSampling": 100.0,
        "PerformedProcedureStepStartTime": "170131.504000",
        "PhotometricInterpretation": "MONOCHROME2",
        "PixelBandwidth": 2003.0,
        "PixelRepresentation": 0,
        "PixelSpacing": [
          2.0,
          2.0
        ],
        "PositionReferenceIndicator": "",
        "ProcedureCodeSequence": [
          {
            "CodeMeaning": "MRI Procedure Limited",
            "CodeValue": "MI01491",
            "CodingSchemeDesignator": "USA Standard",
            "ContextIdentifier": "4000100956"
          }
        ],
        "ProtocolName": "NIH_EPI_2.0iso_TR2_Run07",
        "ReferencedStudySequence": [
          {
            "ReferencedSOPClassUID": "1.2.840.10008.3.1.2.3.1",
            "ReferencedSOPInstanceUID": "1.2.840.113564.9.1.2723958737.61.2.5000066720"
          }
        ],
        "RepetitionTime": 2000.0,
        "RequestedProcedureCodeSequence": [
          {
            "CodeMeaning": "MRI Procedure Limited",
            "CodeValue": "MI01491",
            "CodingSchemeDesignator": "USA Standard",
            "ContextIdentifier": "4000100956"
          }
        ],
        "RequestingService": "MHMI",
        "Rows": 768,
        "SAR": 0.08252816967743,
        "SamplesPerPixel": 1,
        "ScanningSequence": "EP",
        "SequenceName": "epfid2d1_96",
        "SequenceVariant": "SK",
        "SeriesDescription": "NIH_EPI_2.0iso_TR2_Run07",
        "SeriesNumber": 12,
        "SliceLocation": -31.084389907735,
        "SliceThickness": 2.0,
        "SmallestImagePixelValue": 0,
        "SoftwareVersions": "syngo MR B17",
        "SpacingBetweenSlices": 2.0000000184226,
        "TransmitCoilName": "32Ch_Head_7T",
        "VariableFlipAngleFlag": "N",
        "WindowCenterWidthExplanation": "Algo1",
        "dBdt": 0.0
      },
      "slices": {}
    },
    "modality": "bold",
    "run_id": 9,
    "session_id": "03",
    "subject_id": "001",
    "task_id": "HalfFovNoTask",
    "time": {
      "samples": {
        "AcquisitionNumber": [
          1,
          2,
          3,
          4,
          5,
          6,
          7,
          8,
          9,
          10,
          11,
          12,
          13,
          14,
          15,
          16,
          17,
          18,
          19,
          20,
          21,
          22,
          23,
          24,
          25,
          26,
          27,
          28,
          29,
          30,
          31,
          32,
          33,
          34,
          35,
          36,
          37,
          38,
          39,
          40,
          41,
          42,
          43,
          44,
          45,
          46,
          47,
          48,
          49,
          50,
          51,
          52,
          53,
          54,
          55,
          56,
          57,
          58,
          59,
          60,
          61,
          62,
          63,
          64,
          65,
          66,
          67,
          68,
          69,
          70,
          71,
          72,
          73,
          74,
          75,
          76,
          77,
          78,
          79,
          80,
          81,
          82,
          83,
          84,
          85,
          86,
          87,
          88,
          89,
          90,
          91,
          92,
          93,
          94,
          95,
          96,
          97,
          98,
          99,
          100,
          101,
          102,
          103,
          104,
          105,
          106,
          107,
          108,
          109,
          110,
          111,
          112,
          113,
          114,
          115,
          116,
          117,
          118,
          119,
          120,
          121,
          122,
          123,
          124,
          125,
          126,
          127,
          128,
          129,
          130,
          131,
          132,
          133,
          134,
          135,
          136,
          137,
          138,
          139,
          140,
          141,
          142,
          143,
          144,
          145,
          146,
          147,
          148,
          149,
          150,
          151,
          152,
          153,
          154,
          155,
          156,
          157,
          158,
          159,
          160,
          161,
          162,
          163,
          164
        ],
        "AcquisitionTime": [
          "181038.555000",
          "181042.570000",
          "181044.580000",
          "181046.587500",
          "181048.595000",
          "181050.602500",
          "181052.610000",
          "181054.620000",
          "181056.627500",
          "181058.635000",
          "181100.642500",
          "181102.652500",
          "181104.660000",
          "181106.667500",
          "181108.675000",
          "181110.682500",
          "181112.692500",
          "181114.700000",
          "181116.707500",
          "181118.715000",
          "181120.722500",
          "181122.732500",
          "181124.740000",
          "181126.747500",
          "181128.755000",
          "181130.765000",
          "181132.772500",
          "181134.780000",
          "181136.787500",
          "181138.795000",
          "181140.805000",
          "181142.812500",
          "181144.820000",
          "181146.827500",
          "181148.835000",
          "181150.845000",
          "181152.852500",
          "181154.860000",
          "181156.867500",
          "181158.877500",
          "181200.885000",
          "181202.892500",
          "181204.900000",
          "181206.907500",
          "181208.917500",
          "181210.925000",
          "181212.932500",
          "181214.940000",
          "181216.947500",
          "181218.957500",
          "181220.965000",
          "181222.972500",
          "181224.980000",
          "181226.987500",
          "181228.997500",
          "181231.005000",
          "181233.012500",
          "181235.020000",
          "181237.030000",
          "181239.037500",
          "181241.045000",
          "181243.052500",
          "181245.060000",
          "181247.070000",
          "181249.077500",
          "181251.085000",
          "181253.092500",
          "181255.100000",
          "181257.110000",
          "181259.117500",
          "181301.125000",
          "181303.132500",
          "181305.142500",
          "181307.150000",
          "181309.157500",
          "181311.165000",
          "181313.172500",
          "181315.182500",
          "181317.190000",
          "181319.197500",
          "181321.205000",
          "181323.212500",
          "181325.222500",
          "181327.230000",
          "181329.237500",
          "181331.245000",
          "181333.255000",
          "181335.262500",
          "181337.270000",
          "181339.277500",
          "181341.285000",
          "181343.295000",
          "181345.302500",
          "181347.310000",
          "181349.317500",
          "181351.325000",
          "181353.335000",
          "181355.342500",
          "181357.350000",
          "181359.357500",
          "181401.365000",
          "181403.375000",
          "181405.382500",
          "181407.390000",
          "181409.397500",
          "181411.407500",
          "181413.415000",
          "181415.422500",
          "181417.430000",
          "181419.437500",
          "181421.447500",
          "181423.455000",
          "181425.462500",
          "181427.470000",
          "181429.477500",
          "181431.487500",
          "181433.495000",
          "181435.502500",
          "181437.510000",
          "181439.520000",
          "181441.527500",
          "181443.535000",
          "181445.542500",
          "181447.550000",
          "181449.560000",
          "181451.567500",
          "181453.575000",
          "181455.582500",
          "181457.590000",
          "181459.600000",
          "181501.607500",
          "181503.615000",
          "181505.622500",
          "181507.632500",
          "181509.640000",
          "181511.647500",
          "181513.655000",
          "181515.662500",
          "181517.672500",
          "181519.680000",
          "181521.687500",
          "181523.695000",
          "181525.702500",
          "181527.712500",
          "181529.720000",
          "181531.727500",
          "181533.735000",
          "181535.742500",
          "181537.752500",
          "181539.760000",
          "181541.767500",
          "181543.775000",
          "181545.785000",
          "181547.792500",
          "181549.800000",
          "181551.807500",
          "181553.815000",
          "181555.825000",
          "181557.832500",
          "181559.840000",
          "181601.847500",
          "181603.855000",
          "181605.865000",
          "181607.872500"
        ],
        "ContentTime": [
          "181140.300000",
          "181140.300000",
          "181140.300000",
          "181140.300000",
          "181140.300000",
          "181140.316000",
          "181140.316000",
          "181140.316000",
          "181140.316000",
          "181140.316000",
          "181140.316000",
          "181140.332000",
          "181140.332000",
          "181140.332000",
          "181140.332000",
          "181140.332000",
          "181140.332000",
          "181140.332000",
          "181140.347000",
          "181140.347000",
          "181140.347000",
          "181140.363000",
          "181140.363000",
          "181140.363000",
          "181140.363000",
          "181140.363000",
          "181140.363000",
          "181140.379000",
          "181140.379000",
          "181220.269000",
          "181220.269000",
          "181220.285000",
          "181220.285000",
          "181220.285000",
          "181220.285000",
          "181220.285000",
          "181220.300000",
          "181220.300000",
          "181220.300000",
          "181220.300000",
          "181220.316000",
          "181220.316000",
          "181220.316000",
          "181220.316000",
          "181220.316000",
          "181220.316000",
          "181220.332000",
          "181220.332000",
          "181220.332000",
          "181300.269000",
          "181300.285000",
          "181300.285000",
          "181300.285000",
          "181300.285000",
          "181300.300000",
          "181300.300000",
          "181300.300000",
          "181300.300000",
          "181300.300000",
          "181300.300000",
          "181300.316000",
          "181300.316000",
          "181300.316000",
          "181300.316000",
          "181300.316000",
          "181300.316000",
          "181300.332000",
          "181300.332000",
          "181300.332000",
          "181320.269000",
          "181320.285000",
          "181320.285000",
          "181320.285000",
          "181320.285000",
          "181320.285000",
          "181320.285000",
          "181320.285000",
          "181320.300000",
          "181320.300000",
          "181400.269000",
          "181400.285000",
          "181400.285000",
          "181400.285000",
          "181400.285000",
          "181400.285000",
          "181400.285000",
          "181400.285000",
          "181400.300000",
          "181400.300000",
          "181400.300000",
          "181400.300000",
          "181400.300000",
          "181400.300000",
          "181400.316000",
          "181400.316000",
          "181400.316000",
          "181400.316000",
          "181400.316000",
          "181400.332000",
          "181440.269000",
          "181440.269000",
          "181440.285000",
          "181440.285000",
          "181440.285000",
          "181440.285000",
          "181440.285000",
          "181440.285000",
          "181440.300000",
          "181440.300000",
          "181440.300000",
          "181440.300000",
          "181440.300000",
          "181440.300000",
          "181440.300000",
          "181440.316000",
          "181440.316000",
          "181440.316000",
          "181440.316000",
          "181440.316000",
          "181520.269000",
          "181520.285000",
          "181520.285000",
          "181520.285000",
          "181520.300000",
          "181520.300000",
          "181520.300000",
          "181520.300000",
          "181520.300000",
          "181520.316000",
          "181520.316000",
          "181520.316000",
          "181520.316000",
          "181520.316000",
          "181520.332000",
          "181520.332000",
          "181520.332000",
          "181520.332000",
          "181520.332000",
          "181520.332000",
          "181600.269000",
          "181600.285000",
          "181600.285000",
          "181600.285000",
          "181600.285000",
          "181600.285000",
          "181600.285000",
          "181600.285000",
          "181600.300000",
          "181600.300000",
          "181600.300000",
          "181600.300000",
          "181600.300000",
          "181600.316000",
          "181600.316000",
          "181600.316000",
          "181600.316000",
          "181600.316000",
          "181600.316000",
          "181600.316000",
          "181608.379000",
          "181608.379000",
          "181608.379000",
          "181608.379000",
          "181608.379000"
        ],
        "InstanceCreationTime": [
          "181140.300000",
          "181140.300000",
          "181140.300000",
          "181140.300000",
          "181140.300000",
          "181140.316000",
          "181140.316000",
          "181140.316000",
          "181140.316000",
          "181140.316000",
          "181140.316000",
          "181140.332000",
          "181140.332000",
          "181140.332000",
          "181140.332000",
          "181140.332000",
          "181140.332000",
          "181140.332000",
          "181140.347000",
          "181140.347000",
          "181140.347000",
          "181140.363000",
          "181140.363000",
          "181140.363000",
          "181140.363000",
          "181140.363000",
          "181140.363000",
          "181140.379000",
          "181140.379000",
          "181220.269000",
          "181220.269000",
          "181220.285000",
          "181220.285000",
          "181220.285000",
          "181220.285000",
          "181220.285000",
          "181220.300000",
          "181220.300000",
          "181220.300000",
          "181220.300000",
          "181220.316000",
          "181220.316000",
          "181220.316000",
          "181220.316000",
          "181220.316000",
          "181220.316000",
          "181220.332000",
          "181220.332000",
          "181220.332000",
          "181300.269000",
          "181300.285000",
          "181300.285000",
          "181300.285000",
          "181300.285000",
          "181300.300000",
          "181300.300000",
          "181300.300000",
          "181300.300000",
          "181300.300000",
          "181300.300000",
          "181300.316000",
          "181300.316000",
          "181300.316000",
          "181300.316000",
          "181300.316000",
          "181300.316000",
          "181300.332000",
          "181300.332000",
          "181300.332000",
          "181320.269000",
          "181320.285000",
          "181320.285000",
          "181320.285000",
          "181320.285000",
          "181320.285000",
          "181320.285000",
          "181320.285000",
          "181320.300000",
          "181320.300000",
          "181400.269000",
          "181400.285000",
          "181400.285000",
          "181400.285000",
          "181400.285000",
          "181400.285000",
          "181400.285000",
          "181400.285000",
          "181400.300000",
          "181400.300000",
          "181400.300000",
          "181400.300000",
          "181400.300000",
          "181400.300000",
          "181400.316000",
          "181400.316000",
          "181400.316000",
          "181400.316000",
          "181400.316000",
          "181400.332000",
          "181440.269000",
          "181440.269000",
          "181440.285000",
          "181440.285000",
          "181440.285000",
          "181440.285000",
          "181440.285000",
          "181440.285000",
          "181440.300000",
          "181440.300000",
          "181440.300000",
          "181440.300000",
          "181440.300000",
          "181440.300000",
          "181440.300000",
          "181440.316000",
          "181440.316000",
          "181440.316000",
          "181440.316000",
          "181440.316000",
          "181520.269000",
          "181520.285000",
          "181520.285000",
          "181520.285000",
          "181520.300000",
          "181520.300000",
          "181520.300000",
          "181520.300000",
          "181520.300000",
          "181520.316000",
          "181520.316000",
          "181520.316000",
          "181520.316000",
          "181520.316000",
          "181520.332000",
          "181520.332000",
          "181520.332000",
          "181520.332000",
          "181520.332000",
          "181520.332000",
          "181600.269000",
          "181600.285000",
          "181600.285000",
          "181600.285000",
          "181600.285000",
          "181600.285000",
          "181600.285000",
          "181600.285000",
          "181600.300000",
          "181600.300000",
          "181600.300000",
          "181600.300000",
          "181600.300000",
          "181600.316000",
          "181600.316000",
          "181600.316000",
          "181600.316000",
          "181600.316000",
          "181600.316000",
          "181600.316000",
          "181608.379000",
          "181608.379000",
          "181608.379000",
          "181608.379000",
          "181608.379000"
        ],
        "InstanceNumber": [
          1,
          2,
          3,
          4,
          5,
          6,
          7,
          8,
          9,
          10,
          11,
          12,
          13,
          14,
          15,
          16,
          17,
          18,
          19,
          20,
          21,
          22,
          23,
          24,
          25,
          26,
          27,
          28,
          29,
          30,
          31,
          32,
          33,
          34,
          35,
          36,
          37,
          38,
          39,
          40,
          41,
          42,
          43,
          44,
          45,
          46,
          47,
          48,
          49,
          50,
          51,
          52,
          53,
          54,
          55,
          56,
          57,
          58,
          59,
          60,
          61,
          62,
          63,
          64,
          65,
          66,
          67,
          68,
          69,
          70,
          71,
          72,
          73,
          74,
          75,
          76,
          77,
          78,
          79,
          80,
          81,
          82,
          83,
          84,
          85,
          86,
          87,
          88,
          89,
          90,
          91,
          92,
          93,
          94,
          95,
          96,
          97,
          98,
          99,
          100,
          101,
          102,
          103,
          104,
          105,
          106,
          107,
          108,
          109,
          110,
          111,
          112,
          113,
          114,
          115,
          116,
          117,
          118,
          119,
          120,
          121,
          122,
          123,
          124,
          125,
          126,
          127,
          128,
          129,
          130,
          131,
          132,
          133,
          134,
          135,
          136,
          137,
          138,
          139,
          140,
          141,
          142,
          143,
          144,
          145,
          146,
          147,
          148,
          149,
          150,
          151,
          152,
          153,
          154,
          155,
          156,
          157,
          158,
          159,
          160,
          161,
          162,
          163,
          164
        ],
        "WindowCenter": [
          1231.0,
          1229.0,
          1226.0,
          1225.0,
          1225.0,
          1226.0,
          1226.0,
          1227.0,
          1226.0,
          1226.0,
          1226.0,
          1227.0,
          1228.0,
          1228.0,
          1226.0,
          1222.0,
          1216.0,
          1216.0,
          1219.0,
          1224.0,
          1226.0,
          1226.0,
          1222.0,
          1227.0,
          1230.0,
          1230.0,
          1230.0,
          1225.0,
          1219.0,
          1214.0,
          1213.0,
          1214.0,
          1218.0,
          1220.0,
          1224.0,
          1225.0,
          1223.0,
          1225.0,
          1226.0,
          1232.0,
          1234.0,
          1232.0,
          1227.0,
          1225.0,
          1227.0,
          1228.0,
          1230.0,
          1231.0,
          1232.0,
          1230.0,
          1228.0,
          1228.0,
          1229.0,
          1229.0,
          1228.0,
          1228.0,
          1230.0,
          1232.0,
          1233.0,
          1229.0,
          1227.0,
          1225.0,
          1226.0,
          1228.0,
          1229.0,
          1230.0,
          1229.0,
          1228.0,
          1228.0,
          1228.0,
          1229.0,
          1229.0,
          1229.0,
          1228.0,
          1232.0,
          1234.0,
          1232.0,
          1224.0,
          1215.0,
          1222.0,
          1227.0,
          1226.0,
          1222.0,
          1213.0,
          1209.0,
          1211.0,
          1216.0,
          1223.0,
          1227.0,
          1227.0,
          1227.0,
          1226.0,
          1227.0,
          1228.0,
          1230.0,
          1232.0,
          1233.0,
          1230.0,
          1226.0,
          1226.0,
          1229.0,
          1233.0,
          1237.0,
          1233.0,
          1227.0,
          1226.0,
          1227.0,
          1225.0,
          1231.0,
          1232.0,
          1225.0,
          1220.0,
          1219.0,
          1223.0,
          1230.0,
          1233.0,
          1232.0,
          1228.0,
          1227.0,
          1228.0,
          1228.0,
          1227.0,
          1226.0,
          1224.0,
          1223.0,
          1223.0,
          1223.0,
          1223.0,
          1224.0,
          1225.0,
          1225.0,
          1225.0,
          1224.0,
          1224.0,
          1226.0,
          1227.0,
          1227.0,
          1227.0,
          1227.0,
          1228.0,
          1228.0,
          1226.0,
          1227.0,
          1227.0,
          1228.0,
          1229.0,
          1230.0,
          1226.0,
          1223.0,
          1222.0,
          1224.0,
          1224.0,
          1224.0,
          1223.0,
          1224.0,
          1226.0,
          1227.0,
          1229.0,
          1230.0,
          1232.0,
          1232.0,
          1231.0,
          1229.0,
          1228.0
        ],
        "WindowWidth": [
          2920.0,
          2913.0,
          2908.0,
          2905.0,
          2905.0,
          2908.0,
          2907.0,
          2909.0,
          2909.0,
          2909.0,
          2911.0,
          2914.0,
          2916.0,
          2913.0,
          2909.0,
          2896.0,
          2883.0,
          2885.0,
          2894.0,
          2902.0,
          2908.0,
          2908.0,
          2898.0,
          2913.0,
          2917.0,
          2918.0,
          2916.0,
          2901.0,
          2885.0,
          2874.0,
          2872.0,
          2878.0,
          2886.0,
          2895.0,
          2903.0,
          2907.0,
          2904.0,
          2908.0,
          2911.0,
          2926.0,
          2929.0,
          2922.0,
          2912.0,
          2909.0,
          2914.0,
          2917.0,
          2920.0,
          2922.0,
          2922.0,
          2918.0,
          2915.0,
          2915.0,
          2919.0,
          2916.0,
          2913.0,
          2914.0,
          2917.0,
          2924.0,
          2926.0,
          2918.0,
          2908.0,
          2908.0,
          2912.0,
          2917.0,
          2916.0,
          2916.0,
          2914.0,
          2914.0,
          2914.0,
          2915.0,
          2918.0,
          2916.0,
          2914.0,
          2914.0,
          2922.0,
          2926.0,
          2922.0,
          2905.0,
          2889.0,
          2900.0,
          2920.0,
          2915.0,
          2892.0,
