{
  "aor": 0.001753780487804878,
  "aqi": 0.004755870975609757,
  "bids_meta": {
    "AcquisitionMatrixPE": 96,
    "AcquisitionNumber": 1,
    "AcquisitionTime": "17:49:49.247500",
    "BandwidthPerPixelPhaseEncode": 52.083,
    "BaseResolution": 96,
    "BodyPartExamined": "HEAD",
    "ConversionSoftware": "dcm2niix",
    "ConversionSoftwareVersion": "v1.0.20180622 GCC6.3.0",
    "DerivedVendorReportedEchoSpacing": 0.000600004,
    "DeviceSerialNumber": "18926",
    "DwellTime": 2.6e-06,
    "EchoTime": 0.025,
    "EffectiveEchoSpacing": 0.000200001,
    "FlipAngle": 50,
    "ImageOrientationPatientDICOM": [
      0.999992,
      0.00067012,
      0.00404905,
      2.11009e-10,
      0.98658,
      -0.16328
    ],
    "ImageType": [
      "ORIGINAL",
      "PRIMARY",
      "M",
      "ND",
      "ECHO",
      "00",
      "MOSAIC"
    ],
    "InPlanePhaseEncodingDirectionDICOM": "ROW",
    "InstitutionName": "NIMH",
    "InstitutionalDepartmentName": "Department",
    "MRAcquisitionType": "2D",
    "MagneticFieldStrength": 6.98,
    "Manufacturer": "Siemens",
    "ManufacturersModelName": "Investigational_Device_7T",
    "Modality": "MR",
    "ParallelReductionFactorInPlane": 3,
    "PartialFourier": 1,
    "PatientPosition": "HFS",
    "PercentPhaseFOV": 100,
    "PhaseEncodingDirection": "i",
    "PhaseEncodingSteps": 94,
    "PhaseResolution": 1,
    "PixelBandwidth": 2003,
    "ProcedureStepDescription": "MRI_Procedure_Limited",
    "ProtocolName": "NIH_EPI_2.0iso_TR2_Run04",
    "PulseSequenceDetails": "%CustomerSeq%_inati_nih_epi",
    "ReceiveCoilName": "32Ch_Head_7T",
    "ReconMatrixPE": 96,
    "RepetitionTime": 2,
    "SAR": 0.0825282,
    "ScanningSequence": "EP",
    "SequenceName": "epfid2d1_96",
    "SequenceVariant": "SK",
    "SeriesDescription": "NIH_EPI_2.0iso_TR2_Run04",
    "SeriesNumber": 9,
    "ShimSetting": [
      -50,
      218,
      853,
      1213,
      -183,
      571,
      69,
      -438
    ],
    "SliceThickness": 2,
    "SliceTiming": [
      1.0025,
      0,
      1.04,
      0.0375,
      1.0775,
      0.075,
      1.115,
      0.1125,
      1.1525,
      0.1475,
      1.19,
      0.185,
      1.2275,
      0.2225,
      1.265,
      0.26,
      1.3,
      0.2975,
      1.3375,
      0.335,
      1.375,
      0.3725,
      1.4125,
      0.41,
      1.45,
      0.445,
      1.4875,
      0.4825,
      1.525,
      0.52,
      1.5625,
      0.5575,
      1.5975,
      0.595,
      1.635,
      0.6325,
      1.6725,
      0.67,
      1.71,
      0.705,
      1.7475,
      0.7425,
      1.785,
      0.78,
      1.8225,
      0.8175,
      1.8575,
      0.855,
      1.895,
      0.8925,
      1.9325,
      0.93,
      1.97,
      0.9675
    ],
    "SoftwareVersions": "syngo_MR_B17",
    "SpacingBetweenSlices": 2,
    "StationName": "FMRIFD7T",
    "TaskName": "HalfFovNoTask",
    "TotalReadoutTime": 0.0190001,
    "TxRefAmp": 331,
    "dataset": "ds001555",
    "dcmmeta_affine": [
      [
        -1.9999831914901733,
        4.2201880878778297e-10,
        0.008208253420889378,
        95.76705169677734
      ],
      [
        -0.0013402394251897931,
        1.973159670829773,
        -0.32655632495880127,
        -58.3952751159668
      ],
      [
        0.008098097518086433,
        0.32655906677246094,
        1.9731431007385254,
        -41.57032775878906
      ],
      [
        0.0,
        0.0,
        0.0,
        1.0
      ]
    ],
    "dcmmeta_reorient_transform": [
      [
        0.0,
        -1.0,
        0.0,
        95.0
      ],
      [
        1.0,
        0.0,
        0.0,
        0.0
      ],
      [
        0.0,
        0.0,
        1.0,
        0.0
      ],
      [
        0.0,
        0.0,
        0.0,
        1.0
      ]
    ],
    "dcmmeta_shape": [
      96,
      96,
      54,
      164
    ],
    "dcmmeta_slice_dim": 2,
    "dcmmeta_version": 0.6,
    "global": {
      "const": {
        "AcquisitionMatrix": [
          0,
          96,
          96,
          0
        ],
        "Allergies": "No Known Allergies",
        "AngioFlag": "N",
        "BitsAllocated": 16,
        "BitsStored": 12,
        "BodyPartExamined": "HEAD",
        "Columns": 768,
        "EchoNumbers": 1,
        "EchoTime": 25.0,
        "EchoTrainLength": 1,
        "FlipAngle": 50.0,
        "HighBit": 11,
        "ImageOrientationPatient": [
          0.99999157803662,
          0.00067011969073,
          0.00404904870684,
          2.110094e-10,
          0.98657984636313,
          -0.1632795356133
        ],
        "ImagePositionPatient": [
          -767.761392775,
          -792.48687407585,
          96.455670438306
        ],
        "ImageType": [
          "ORIGINAL",
          "PRIMARY",
          "M",
          "ND",
          "ECHO_00",
          "MOSAIC"
        ],
        "ImagedNucleus": "1H",
        "ImagingFrequency": 297.205135,
        "InPlanePhaseEncodingDirection": "ROW",
        "LargestImagePixelValue": 4095,
        "MRAcquisitionType": "2D",
        "MagneticFieldStrength": 6.98,
        "Manufacturer": "SIEMENS",
        "ManufacturerModelName": "Investigational_Device_7T",
        "Modality": "MR",
        "NumberOfAverages": 1.0,
        "NumberOfPhaseEncodingSteps": 94,
        "PercentPhaseFieldOfView": 100.0,
        "PercentSampling": 100.0,
        "PerformedProcedureStepStartTime": "170131.504000",
        "PhotometricInterpretation": "MONOCHROME2",
        "PixelBandwidth": 2003.0,
        "PixelRepresentation": 0,
        "PixelSpacing": [
          2.0,
          2.0
        ],
        "PositionReferenceIndicator": "",
        "ProcedureCodeSequence": [
          {
            "CodeMeaning": "MRI Procedure Limited",
            "CodeValue": "MI01491",
            "CodingSchemeDesignator": "USA Standard",
            "ContextIdentifier": "4000100956"
          }
        ],
        "ProtocolName": "NIH_EPI_2.0iso_TR2_Run04",
        "ReferencedStudySequence": [
          {
            "ReferencedSOPClassUID": "1.2.840.10008.3.1.2.3.1",
            "ReferencedSOPInstanceUID": "1.2.840.113564.9.1.2723958737.61.2.5000066720"
          }
        ],
        "RepetitionTime": 2000.0,
        "RequestedProcedureCodeSequence": [
          {
            "CodeMeaning": "MRI Procedure Limited",
            "CodeValue": "MI01491",
            "CodingSchemeDesignator": "USA Standard",
            "ContextIdentifier": "4000100956"
          }
        ],
        "RequestingService": "MHMI",
        "Rows": 768,
        "SAR": 0.08252816967743,
        "SamplesPerPixel": 1,
        "ScanningSequence": "EP",
        "SequenceName": "epfid2d1_96",
        "SequenceVariant": "SK",
        "SeriesDescription": "NIH_EPI_2.0iso_TR2_Run04",
        "SeriesNumber": 9,
        "SliceLocation": -31.084389907735,
        "SliceThickness": 2.0,
        "SmallestImagePixelValue": 0,
        "SoftwareVersions": "syngo MR B17",
        "SpacingBetweenSlices": 2.0000000184226,
        "TransmitCoilName": "32Ch_Head_7T",
        "VariableFlipAngleFlag": "N",
        "WindowCenterWidthExplanation": "Algo1",
        "dBdt": 0.0
      },
      "slices": {}
    },
    "modality": "bold",
    "run_id": 6,
    "session_id": "03",
    "subject_id": "001",
    "task_id": "HalfFovNoTask",
    "time": {
      "samples": {
        "AcquisitionNumber": [
          1,
          2,
          3,
          4,
          5,
          6,
          7,
          8,
          9,
          10,
          11,
          12,
          13,
          14,
          15,
          16,
          17,
          18,
          19,
          20,
          21,
          22,
          23,
          24,
          25,
          26,
          27,
          28,
          29,
          30,
          31,
          32,
          33,
          34,
          35,
          36,
          37,
          38,
          39,
          40,
          41,
          42,
          43,
          44,
          45,
          46,
          47,
          48,
          49,
          50,
          51,
          52,
          53,
          54,
          55,
          56,
          57,
          58,
          59,
          60,
          61,
          62,
          63,
          64,
          65,
          66,
          67,
          68,
          69,
          70,
          71,
          72,
          73,
          74,
          75,
          76,
          77,
          78,
          79,
          80,
          81,
          82,
          83,
          84,
          85,
          86,
          87,
          88,
          89,
          90,
          91,
          92,
          93,
          94,
          95,
          96,
          97,
          98,
          99,
          100,
          101,
          102,
          103,
          104,
          105,
          106,
          107,
          108,
          109,
          110,
          111,
          112,
          113,
          114,
          115,
          116,
          117,
          118,
          119,
          120,
          121,
          122,
          123,
          124,
          125,
          126,
          127,
          128,
          129,
          130,
          131,
          132,
          133,
          134,
          135,
          136,
          137,
          138,
          139,
          140,
          141,
          142,
          143,
          144,
          145,
          146,
          147,
          148,
          149,
          150,
          151,
          152,
          153,
          154,
          155,
          156,
          157,
          158,
          159,
          160,
          161,
          162,
          163,
          164
        ],
        "AcquisitionTime": [
          "174949.247500",
          "174953.265000",
          "174955.272500",
          "174957.280000",
          "174959.290000",
          "175001.297500",
          "175003.305000",
          "175005.312500",
          "175007.320000",
          "175009.330000",
          "175011.337500",
          "175013.345000",
          "175015.352500",
          "175017.360000",
          "175019.370000",
          "175021.377500",
          "175023.385000",
          "175025.392500",
          "175027.400000",
          "175029.410000",
          "175031.417500",
          "175033.425000",
          "175035.432500",
          "175037.442500",
          "175039.450000",
          "175041.457500",
          "175043.465000",
          "175045.472500",
          "175047.482500",
          "175049.490000",
          "175051.497500",
          "175053.505000",
          "175055.512500",
          "175057.522500",
          "175059.530000",
          "175101.537500",
          "175103.545000",
          "175105.555000",
          "175107.562500",
          "175109.570000",
          "175111.577500",
          "175113.585000",
          "175115.595000",
          "175117.602500",
          "175119.610000",
          "175121.617500",
          "175123.625000",
          "175125.635000",
          "175127.642500",
          "175129.650000",
          "175131.657500",
          "175133.667500",
          "175135.675000",
          "175137.682500",
          "175139.690000",
          "175141.697500",
          "175143.707500",
          "175145.715000",
          "175147.722500",
          "175149.730000",
          "175151.737500",
          "175153.747500",
          "175155.755000",
          "175157.762500",
          "175159.770000",
          "175201.777500",
          "175203.787500",
          "175205.795000",
          "175207.802500",
          "175209.810000",
          "175211.820000",
          "175213.827500",
          "175215.835000",
          "175217.842500",
          "175219.850000",
          "175221.860000",
          "175223.867500",
          "175225.875000",
          "175227.882500",
          "175229.890000",
          "175231.900000",
          "175233.907500",
          "175235.915000",
          "175237.922500",
          "175239.932500",
          "175241.940000",
          "175243.947500",
          "175245.955000",
          "175247.962500",
          "175249.972500",
          "175251.980000",
          "175253.987500",
          "175255.995000",
          "175258.002500",
          "175300.012500",
          "175302.020000",
          "175304.027500",
          "175306.035000",
          "175308.045000",
          "175310.052500",
          "175312.060000",
          "175314.067500",
          "175316.075000",
          "175318.085000",
          "175320.092500",
          "175322.100000",
          "175324.107500",
          "175326.115000",
          "175328.125000",
          "175330.132500",
          "175332.140000",
          "175334.147500",
          "175336.157500",
          "175338.165000",
          "175340.172500",
          "175342.180000",
          "175344.187500",
          "175346.197500",
          "175348.205000",
          "175350.212500",
          "175352.220000",
          "175354.227500",
          "175356.237500",
          "175358.245000",
          "175400.252500",
          "175402.260000",
          "175404.267500",
          "175406.277500",
          "175408.285000",
          "175410.292500",
          "175412.300000",
          "175414.310000",
          "175416.317500",
          "175418.325000",
          "175420.332500",
          "175422.340000",
          "175424.350000",
          "175426.357500",
          "175428.365000",
          "175430.372500",
          "175432.380000",
          "175434.390000",
          "175436.397500",
          "175438.405000",
          "175440.412500",
          "175442.422500",
          "175444.430000",
          "175446.437500",
          "175448.445000",
          "175450.452500",
          "175452.462500",
          "175454.470000",
          "175456.477500",
          "175458.485000",
          "175500.492500",
          "175502.502500",
          "175504.510000",
          "175506.517500",
          "175508.525000",
          "175510.535000",
          "175512.542500",
          "175514.550000",
          "175516.557500",
          "175518.565000"
        ],
        "ContentTime": [
          "175040.285000",
          "175040.285000",
          "175040.285000",
          "175040.285000",
          "175040.300000",
          "175040.300000",
          "175040.300000",
          "175040.300000",
          "175040.300000",
          "175040.300000",
          "175040.300000",
          "175040.316000",
          "175040.316000",
          "175040.316000",
          "175040.316000",
          "175040.316000",
          "175040.332000",
          "175040.332000",
          "175040.332000",
          "175040.332000",
          "175040.332000",
          "175040.332000",
          "175040.332000",
          "175040.347000",
          "175120.269000",
          "175120.269000",
          "175120.269000",
          "175120.285000",
          "175120.285000",
          "175120.285000",
          "175120.285000",
          "175120.285000",
          "175120.285000",
          "175120.285000",
          "175120.300000",
          "175120.300000",
          "175120.300000",
          "175120.300000",
          "175120.316000",
          "175120.316000",
          "175120.316000",
          "175120.316000",
          "175120.316000",
          "175120.316000",
          "175200.269000",
          "175200.269000",
          "175200.269000",
          "175200.285000",
          "175200.285000",
          "175200.285000",
          "175200.285000",
          "175200.285000",
          "175200.285000",
          "175200.285000",
          "175200.300000",
          "175200.300000",
          "175200.300000",
          "175200.300000",
          "175200.300000",
          "175200.316000",
          "175200.316000",
          "175200.316000",
          "175200.316000",
          "175200.316000",
          "175240.269000",
          "175240.269000",
          "175240.269000",
          "175240.285000",
          "175240.285000",
          "175240.285000",
          "175240.285000",
          "175240.285000",
          "175240.285000",
          "175240.300000",
          "175240.300000",
          "175240.300000",
          "175240.300000",
          "175240.300000",
          "175240.316000",
          "175240.316000",
          "175240.316000",
          "175240.316000",
          "175240.316000",
          "175240.332000",
          "175320.269000",
          "175320.269000",
          "175320.269000",
          "175320.285000",
          "175320.285000",
          "175320.285000",
          "175320.285000",
          "175320.285000",
          "175320.285000",
          "175320.300000",
          "175320.300000",
          "175320.300000",
          "175320.300000",
          "175320.300000",
          "175320.316000",
          "175320.316000",
          "175320.316000",
          "175320.316000",
          "175320.316000",
          "175320.332000",
          "175400.269000",
          "175400.269000",
          "175400.285000",
          "175400.285000",
          "175400.285000",
          "175400.285000",
          "175400.285000",
          "175400.300000",
          "175400.300000",
          "175400.300000",
          "175400.300000",
          "175400.300000",
          "175400.316000",
          "175400.316000",
          "175400.316000",
          "175400.316000",
          "175400.316000",
          "175400.332000",
          "175400.332000",
          "175400.332000",
          "175440.269000",
          "175440.269000",
          "175440.285000",
          "175440.285000",
          "175440.285000",
          "175440.285000",
          "175440.285000",
          "175440.285000",
          "175440.300000",
          "175440.300000",
          "175440.300000",
          "175440.300000",
          "175440.300000",
          "175440.300000",
          "175440.300000",
          "175440.316000",
          "175440.316000",
          "175440.316000",
          "175440.316000",
          "175440.316000",
          "175519.863000",
          "175519.863000",
          "175519.863000",
          "175519.863000",
          "175519.879000",
          "175519.879000",
          "175519.879000",
          "175519.879000",
          "175519.879000",
          "175519.879000",
          "175519.879000",
          "175519.894000",
          "175519.894000",
          "175519.894000",
          "175519.894000",
          "175519.910000",
          "175519.910000",
          "175519.910000",
          "175519.910000",
          "175519.910000"
        ],
        "InstanceCreationTime": [
          "175040.285000",
          "175040.285000",
          "175040.285000",
          "175040.285000",
          "175040.300000",
          "175040.300000",
          "175040.300000",
          "175040.300000",
          "175040.300000",
          "175040.300000",
          "175040.300000",
          "175040.316000",
          "175040.316000",
          "175040.316000",
          "175040.316000",
          "175040.316000",
          "175040.332000",
          "175040.332000",
          "175040.332000",
          "175040.332000",
          "175040.332000",
          "175040.332000",
          "175040.332000",
          "175040.347000",
          "175120.269000",
          "175120.269000",
          "175120.269000",
          "175120.285000",
          "175120.285000",
          "175120.285000",
          "175120.285000",
          "175120.285000",
          "175120.285000",
          "175120.285000",
          "175120.300000",
          "175120.300000",
          "175120.300000",
          "175120.300000",
          "175120.316000",
          "175120.316000",
          "175120.316000",
          "175120.316000",
          "175120.316000",
          "175120.316000",
          "175200.269000",
          "175200.269000",
          "175200.269000",
          "175200.285000",
          "175200.285000",
          "175200.285000",
          "175200.285000",
          "175200.285000",
          "175200.285000",
          "175200.285000",
          "175200.300000",
          "175200.300000",
          "175200.300000",
          "175200.300000",
          "175200.300000",
          "175200.316000",
          "175200.316000",
          "175200.316000",
          "175200.316000",
          "175200.316000",
          "175240.269000",
          "175240.269000",
          "175240.269000",
          "175240.285000",
          "175240.285000",
          "175240.285000",
          "175240.285000",
          "175240.285000",
          "175240.285000",
          "175240.300000",
          "175240.300000",
          "175240.300000",
          "175240.300000",
          "175240.300000",
          "175240.316000",
          "175240.316000",
          "175240.316000",
          "175240.316000",
          "175240.316000",
          "175240.332000",
          "175320.269000",
          "175320.269000",
          "175320.269000",
          "175320.285000",
          "175320.285000",
          "175320.285000",
          "175320.285000",
          "175320.285000",
          "175320.285000",
          "175320.300000",
          "175320.300000",
          "175320.300000",
          "175320.300000",
          "175320.300000",
          "175320.316000",
          "175320.316000",
          "175320.316000",
          "175320.316000",
          "175320.316000",
          "175320.332000",
          "175400.269000",
          "175400.269000",
          "175400.285000",
          "175400.285000",
          "175400.285000",
          "175400.285000",
          "175400.285000",
          "175400.300000",
          "175400.300000",
          "175400.300000",
          "175400.300000",
          "175400.300000",
          "175400.316000",
          "175400.316000",
          "175400.316000",
          "175400.316000",
          "175400.316000",
          "175400.332000",
          "175400.332000",
          "175400.332000",
          "175440.269000",
          "175440.269000",
          "175440.285000",
          "175440.285000",
          "175440.285000",
          "175440.285000",
          "175440.285000",
          "175440.285000",
          "175440.300000",
          "175440.300000",
          "175440.300000",
          "175440.300000",
          "175440.300000",
          "175440.300000",
          "175440.300000",
          "175440.316000",
          "175440.316000",
          "175440.316000",
          "175440.316000",
          "175440.316000",
          "175519.863000",
          "175519.863000",
          "175519.863000",
          "175519.863000",
          "175519.879000",
          "175519.879000",
          "175519.879000",
          "175519.879000",
          "175519.879000",
          "175519.879000",
          "175519.879000",
          "175519.894000",
          "175519.894000",
          "175519.894000",
          "175519.894000",
          "175519.910000",
          "175519.910000",
          "175519.910000",
          "175519.910000",
          "175519.910000"
        ],
        "InstanceNumber": [
          1,
          2,
          3,
          4,
          5,
          6,
          7,
          8,
          9,
          10,
          11,
          12,
          13,
          14,
          15,
          16,
          17,
          18,
          19,
          20,
          21,
          22,
          23,
          24,
          25,
          26,
          27,
          28,
          29,
          30,
          31,
          32,
          33,
          34,
          35,
          36,
          37,
          38,
          39,
          40,
          41,
          42,
          43,
          44,
          45,
          46,
          47,
          48,
          49,
          50,
          51,
          52,
          53,
          54,
          55,
          56,
          57,
          58,
          59,
          60,
          61,
          62,
          63,
          64,
          65,
          66,
          67,
          68,
          69,
          70,
          71,
          72,
          73,
          74,
          75,
          76,
          77,
          78,
          79,
          80,
          81,
          82,
          83,
          84,
          85,
          86,
          87,
          88,
          89,
          90,
          91,
          92,
          93,
          94,
          95,
          96,
          97,
          98,
          99,
          100,
          101,
          102,
          103,
          104,
          105,
          106,
          107,
          108,
          109,
          110,
          111,
          112,
          113,
          114,
          115,
          116,
          117,
          118,
          119,
          120,
          121,
          122,
          123,
          124,
          125,
          126,
          127,
          128,
          129,
          130,
          131,
          132,
          133,
          134,
          135,
          136,
          137,
          138,
          139,
          140,
          141,
          142,
          143,
          144,
          145,
          146,
          147,
          148,
          149,
          150,
          151,
          152,
          153,
          154,
          155,
          156,
          157,
          158,
          159,
          160,
          161,
          162,
          163,
          164
        ],
        "WindowCenter": [
          1230.0,
          1228.0,
          1229.0,
          1228.0,
          1227.0,
          1228.0,
          1229.0,
          1228.0,
          1228.0,
          1229.0,
          1228.0,
          1229.0,
          1230.0,
          1230.0,
          1230.0,
          1230.0,
          1231.0,
          1230.0,
          1230.0,
          1229.0,
          1228.0,
          1228.0,
          1228.0,
          1227.0,
          1228.0,
          1230.0,
          1230.0,
          1231.0,
          1230.0,
          1231.0,
          1230.0,
          1230.0,
          1230.0,
          1230.0,
          1229.0,
          1229.0,
          1229.0,
          1228.0,
          1228.0,
          1228.0,
          1227.0,
          1228.0,
          1228.0,
          1228.0,
          1228.0,
          1227.0,
          1226.0,
          1229.0,
          1229.0,
          1229.0,
          1230.0,
          1231.0,
          1232.0,
          1233.0,
          1233.0,
          1231.0,
          1230.0,
          1230.0,
          1230.0,
          1230.0,
          1231.0,
          1230.0,
          1230.0,
          1230.0,
          1230.0,
          1228.0,
          1227.0,
          1227.0,
          1227.0,
          1228.0,
          1228.0,
          1227.0,
          1226.0,
          1227.0,
          1228.0,
          1227.0,
          1228.0,
          1230.0,
          1229.0,
          1229.0,
          1230.0,
          1229.0,
          1227.0,
          1228.0,
          1229.0,
          1229.0,
          1229.0,
          1229.0,
          1231.0,
          1233.0,
          1232.0,
          1232.0,
          1233.0,
          1231.0,
          1231.0,
          1230.0,
          1230.0,
          1229.0,
          1229.0,
          1229.0,
          1232.0,
          1232.0,
          1230.0,
          1229.0,
          1229.0,
          1231.0,
          1231.0,
          1230.0,
          1231.0,
          1231.0,
          1230.0,
          1230.0,
          1231.0,
          1230.0,
          1231.0,
          1232.0,
          1232.0,
          1232.0,
          1232.0,
          1231.0,
          1232.0,
          1229.0,
          1229.0,
          1229.0,
          1232.0,
          1232.0,
          1231.0,
          1229.0,
          1227.0,
          1226.0,
          1227.0,
          1227.0,
          1226.0,
          1230.0,
          1231.0,
          1233.0,
          1233.0,
          1231.0,
          1230.0,
          1231.0,
          1231.0,
          1232.0,
          1230.0,
          1230.0,
          1230.0,
          1231.0,
          1231.0,
          1231.0,
          1230.0,
          1227.0,
          1228.0,
          1229.0,
          1228.0,
          1229.0,
          1229.0,
          1230.0,
          1231.0,
          1231.0,
          1227.0,
          1226.0,
          1228.0,
          1228.0,
          1229.0,
          1229.0
        ],
        "WindowWidth": [
          2919.0,
          2918.0,
          2918.0,
          2916.0,
          2914.0,
          2916.0,
          2917.0,
          2915.0,
          2915.0,
          2917.0,
          2917.0,
          2919.0,
          2922.0,
          2921.0,
          2920.0,
          2920.0,
          2922.0,
          2924.0,
          2925.0,
          2922.0,
          2919.0,
          2917.0,
          2916.0,
          2916.0,
          2919.0,
          2921.0,
          2921.0,
          2920.0,
          2922.0,
          2923.0,
          2924.0,
          2925.0,
          2924.0,
          2925.0,
          2921.0,
          2921.0,
          2921.0,
          2920.0,
          2916.0,
          2915.0,
          2912.0,
          2913.0,
          2914.0,
          2916.0,
          2916.0,
          2914.0,
          2914.0,
          2916.0,
          2917.0,
          2919.0,
          2920.0,
          2925.0,
          2928.0,
          2930.0,
          2927.0,
          2924.0,
          2922.0,
          2922.0,
          2922.0,
          2921.0,
          2920.0,
          2920.0,
          2922.0,
          2923.0,
          2920.0,
          2918.0,
          2913.0,
          2914.0,
          2913.0,
          2914.0,
          2914.0,
          2915.0,
          2911.0,
          2913.0,
          2917.0,
          2917.0,
          2921.0,
          2923.0,
          2922.0,
          2920.0,
          2920.0,
          2917.0,
          2916.0,
