{
  "aor": 0.0038719512195121947,
  "aqi": 0.007277095914634147,
  "bids_meta": {
    "AcquisitionMatrixPE": 96,
    "AcquisitionNumber": 1,
    "AcquisitionTime": "17:42:42.872500",
    "BandwidthPerPixelPhaseEncode": 52.083,
    "BaseResolution": 96,
    "BodyPartExamined": "HEAD",
    "ConversionSoftware": "dcm2niix",
    "ConversionSoftwareVersion": "v1.0.20180622 GCC6.3.0",
    "DerivedVendorReportedEchoSpacing": 0.000600004,
    "DeviceSerialNumber": "18926",
    "DwellTime": 2.6e-06,
    "EchoTime": 0.025,
    "EffectiveEchoSpacing": 0.000200001,
    "FlipAngle": 50,
    "ImageOrientationPatientDICOM": [
      0.999992,
      0.00067012,
      0.00404905,
      2.11009e-10,
      0.98658,
      -0.16328
    ],
    "ImageType": [
      "ORIGINAL",
      "PRIMARY",
      "M",
      "ND",
      "ECHO",
      "00",
      "MOSAIC"
    ],
    "InPlanePhaseEncodingDirectionDICOM": "ROW",
    "InstitutionName": "NIMH",
    "InstitutionalDepartmentName": "Department",
    "MRAcquisitionType": "2D",
    "MagneticFieldStrength": 6.98,
    "Manufacturer": "Siemens",
    "ManufacturersModelName": "Investigational_Device_7T",
    "Modality": "MR",
    "ParallelReductionFactorInPlane": 3,
    "PartialFourier": 1,
    "PatientPosition": "HFS",
    "PercentPhaseFOV": 100,
    "PhaseEncodingDirection": "i",
    "PhaseEncodingSteps": 94,
    "PhaseResolution": 1,
    "PixelBandwidth": 2003,
    "ProcedureStepDescription": "MRI_Procedure_Limited",
    "ProtocolName": "NIH_EPI_2.0iso_TR2_Run03",
    "PulseSequenceDetails": "%CustomerSeq%_inati_nih_epi",
    "ReceiveCoilName": "32Ch_Head_7T",
    "ReconMatrixPE": 96,
    "RepetitionTime": 2,
    "SAR": 0.0825282,
    "ScanningSequence": "EP",
    "SequenceName": "epfid2d1_96",
    "SequenceVariant": "SK",
    "SeriesDescription": "NIH_EPI_2.0iso_TR2_Run03",
    "SeriesNumber": 8,
    "ShimSetting": [
      -50,
      218,
      853,
      1213,
      -183,
      571,
      69,
      -438
    ],
    "SliceThickness": 2,
    "SliceTiming": [
      1.0025,
      0,
      1.04,
      0.0375,
      1.0775,
      0.075,
      1.115,
      0.11,
      1.1525,
      0.1475,
      1.19,
      0.185,
      1.2275,
      0.2225,
      1.2625,
      0.26,
      1.3,
      0.2975,
      1.3375,
      0.335,
      1.375,
      0.3725,
      1.4125,
      0.4075,
      1.45,
      0.445,
      1.4875,
      0.4825,
      1.525,
      0.52,
      1.56,
      0.5575,
      1.5975,
      0.595,
      1.635,
      0.6325,
      1.6725,
      0.67,
      1.71,
      0.705,
      1.7475,
      0.7425,
      1.785,
      0.78,
      1.8225,
      0.8175,
      1.8575,
      0.855,
      1.895,
      0.8925,
      1.9325,
      0.93,
      1.97,
      0.965
    ],
    "SoftwareVersions": "syngo_MR_B17",
    "SpacingBetweenSlices": 2,
    "StationName": "FMRIFD7T",
    "TaskName": "HalfFovNoTask",
    "TotalReadoutTime": 0.0190001,
    "TxRefAmp": 331,
    "dataset": "ds001555",
    "dcmmeta_affine": [
      [
        -1.9999831914901733,
        4.2201880878778297e-10,
        0.008208253420889378,
        95.76705169677734
      ],
      [
        -0.0013402394251897931,
        1.973159670829773,
        -0.32655632495880127,
        -58.3952751159668
      ],
      [
        0.008098097518086433,
        0.32655906677246094,
        1.9731431007385254,
        -41.57032775878906
      ],
      [
        0.0,
        0.0,
        0.0,
        1.0
      ]
    ],
    "dcmmeta_reorient_transform": [
      [
        0.0,
        -1.0,
        0.0,
        95.0
      ],
      [
        1.0,
        0.0,
        0.0,
        0.0
      ],
      [
        0.0,
        0.0,
        1.0,
        0.0
      ],
      [
        0.0,
        0.0,
        0.0,
        1.0
      ]
    ],
    "dcmmeta_shape": [
      96,
      96,
      54,
      164
    ],
    "dcmmeta_slice_dim": 2,
    "dcmmeta_version": 0.6,
    "global": {
      "const": {
        "AcquisitionMatrix": [
          0,
          96,
          96,
          0
        ],
        "Allergies": "No Known Allergies",
        "AngioFlag": "N",
        "BitsAllocated": 16,
        "BitsStored": 12,
        "BodyPartExamined": "HEAD",
        "Columns": 768,
        "EchoNumbers": 1,
        "EchoTime": 25.0,
        "EchoTrainLength": 1,
        "FlipAngle": 50.0,
        "HighBit": 11,
        "ImageOrientationPatient": [
          0.99999157803662,
          0.00067011969073,
          0.00404904870684,
          2.110094e-10,
          0.98657984636313,
          -0.1632795356133
        ],
        "ImagePositionPatient": [
          -767.761392775,
          -792.48687407585,
          96.455670438306
        ],
        "ImageType": [
          "ORIGINAL",
          "PRIMARY",
          "M",
          "ND",
          "ECHO_00",
          "MOSAIC"
        ],
        "ImagedNucleus": "1H",
        "ImagingFrequency": 297.205118,
        "InPlanePhaseEncodingDirection": "ROW",
        "LargestImagePixelValue": 4095,
        "MRAcquisitionType": "2D",
        "MagneticFieldStrength": 6.98,
        "Manufacturer": "SIEMENS",
        "ManufacturerModelName": "Investigational_Device_7T",
        "Modality": "MR",
        "NumberOfAverages": 1.0,
        "NumberOfPhaseEncodingSteps": 94,
        "PercentPhaseFieldOfView": 100.0,
        "PercentSampling": 100.0,
        "PerformedProcedureStepStartTime": "170131.504000",
        "PhotometricInterpretation": "MONOCHROME2",
        "PixelBandwidth": 2003.0,
        "PixelRepresentation": 0,
        "PixelSpacing": [
          2.0,
          2.0
        ],
        "PositionReferenceIndicator": "",
        "ProcedureCodeSequence": [
          {
            "CodeMeaning": "MRI Procedure Limited",
            "CodeValue": "MI01491",
            "CodingSchemeDesignator": "USA Standard",
            "ContextIdentifier": "4000100956"
          }
        ],
        "ProtocolName": "NIH_EPI_2.0iso_TR2_Run03",
        "ReferencedStudySequence": [
          {
            "ReferencedSOPClassUID": "1.2.840.10008.3.1.2.3.1",
            "ReferencedSOPInstanceUID": "1.2.840.113564.9.1.2723958737.61.2.5000066720"
          }
        ],
        "RepetitionTime": 2000.0,
        "RequestedProcedureCodeSequence": [
          {
            "CodeMeaning": "MRI Procedure Limited",
            "CodeValue": "MI01491",
            "CodingSchemeDesignator": "USA Standard",
            "ContextIdentifier": "4000100956"
          }
        ],
        "RequestingService": "MHMI",
        "Rows": 768,
        "SAR": 0.08252816967743,
        "SamplesPerPixel": 1,
        "ScanningSequence": "EP",
        "SequenceName": "epfid2d1_96",
        "SequenceVariant": "SK",
        "SeriesDescription": "NIH_EPI_2.0iso_TR2_Run03",
        "SeriesNumber": 8,
        "SliceLocation": -31.084389907735,
        "SliceThickness": 2.0,
        "SmallestImagePixelValue": 0,
        "SoftwareVersions": "syngo MR B17",
        "SpacingBetweenSlices": 2.0000000184226,
        "TransmitCoilName": "32Ch_Head_7T",
        "VariableFlipAngleFlag": "N",
        "WindowCenterWidthExplanation": "Algo1",
        "dBdt": 0.0
      },
      "slices": {}
    },
    "modality": "bold",
    "run_id": 5,
    "session_id": "03",
    "subject_id": "001",
    "task_id": "HalfFovNoTask",
    "time": {
      "samples": {
        "AcquisitionNumber": [
          1,
          2,
          3,
          4,
          5,
          6,
          7,
          8,
          9,
          10,
          11,
          12,
          13,
          14,
          15,
          16,
          17,
          18,
          19,
          20,
          21,
          22,
          23,
          24,
          25,
          26,
          27,
          28,
          29,
          30,
          31,
          32,
          33,
          34,
          35,
          36,
          37,
          38,
          39,
          40,
          41,
          42,
          43,
          44,
          45,
          46,
          47,
          48,
          49,
          50,
          51,
          52,
          53,
          54,
          55,
          56,
          57,
          58,
          59,
          60,
          61,
          62,
          63,
          64,
          65,
          66,
          67,
          68,
          69,
          70,
          71,
          72,
          73,
          74,
          75,
          76,
          77,
          78,
          79,
          80,
          81,
          82,
          83,
          84,
          85,
          86,
          87,
          88,
          89,
          90,
          91,
          92,
          93,
          94,
          95,
          96,
          97,
          98,
          99,
          100,
          101,
          102,
          103,
          104,
          105,
          106,
          107,
          108,
          109,
          110,
          111,
          112,
          113,
          114,
          115,
          116,
          117,
          118,
          119,
          120,
          121,
          122,
          123,
          124,
          125,
          126,
          127,
          128,
          129,
          130,
          131,
          132,
          133,
          134,
          135,
          136,
          137,
          138,
          139,
          140,
          141,
          142,
          143,
          144,
          145,
          146,
          147,
          148,
          149,
          150,
          151,
          152,
          153,
          154,
          155,
          156,
          157,
          158,
          159,
          160,
          161,
          162,
          163,
          164
        ],
        "AcquisitionTime": [
          "174242.872500",
          "174246.890000",
          "174248.897500",
          "174250.905000",
          "174252.912500",
          "174254.922500",
          "174256.930000",
          "174258.937500",
          "174300.945000",
          "174302.952500",
          "174304.962500",
          "174306.970000",
          "174308.977500",
          "174310.985000",
          "174312.995000",
          "174315.002500",
          "174317.010000",
          "174319.017500",
          "174321.025000",
          "174323.035000",
          "174325.042500",
          "174327.050000",
          "174329.057500",
          "174331.065000",
          "174333.075000",
          "174335.082500",
          "174337.090000",
          "174339.097500",
          "174341.107500",
          "174343.115000",
          "174345.122500",
          "174347.130000",
          "174349.137500",
          "174351.147500",
          "174353.155000",
          "174355.162500",
          "174357.170000",
          "174359.177500",
          "174401.187500",
          "174403.195000",
          "174405.202500",
          "174407.210000",
          "174409.220000",
          "174411.227500",
          "174413.235000",
          "174415.242500",
          "174417.250000",
          "174419.260000",
          "174421.267500",
          "174423.275000",
          "174425.282500",
          "174427.290000",
          "174429.300000",
          "174431.307500",
          "174433.315000",
          "174435.322500",
          "174437.330000",
          "174439.340000",
          "174441.347500",
          "174443.355000",
          "174445.362500",
          "174447.372500",
          "174449.380000",
          "174451.387500",
          "174453.395000",
          "174455.402500",
          "174457.412500",
          "174459.420000",
          "174501.427500",
          "174503.435000",
          "174505.442500",
          "174507.452500",
          "174509.460000",
          "174511.467500",
          "174513.475000",
          "174515.485000",
          "174517.492500",
          "174519.500000",
          "174521.507500",
          "174523.515000",
          "174525.525000",
          "174527.532500",
          "174529.540000",
          "174531.547500",
          "174533.555000",
          "174535.565000",
          "174537.572500",
          "174539.580000",
          "174541.587500",
          "174543.597500",
          "174545.605000",
          "174547.612500",
          "174549.620000",
          "174551.627500",
          "174553.637500",
          "174555.645000",
          "174557.652500",
          "174559.660000",
          "174601.667500",
          "174603.677500",
          "174605.685000",
          "174607.692500",
          "174609.700000",
          "174611.707500",
          "174613.717500",
          "174615.725000",
          "174617.732500",
          "174619.740000",
          "174621.750000",
          "174623.757500",
          "174625.765000",
          "174627.772500",
          "174629.780000",
          "174631.790000",
          "174633.797500",
          "174635.805000",
          "174637.812500",
          "174639.820000",
          "174641.830000",
          "174643.837500",
          "174645.845000",
          "174647.852500",
          "174649.862500",
          "174651.870000",
          "174653.877500",
          "174655.885000",
          "174657.892500",
          "174659.902500",
          "174701.910000",
          "174703.917500",
          "174705.925000",
          "174707.932500",
          "174709.942500",
          "174711.950000",
          "174713.957500",
          "174715.965000",
          "174717.975000",
          "174719.982500",
          "174721.990000",
          "174723.997500",
          "174726.005000",
          "174728.015000",
          "174730.022500",
          "174732.030000",
          "174734.037500",
          "174736.045000",
          "174738.055000",
          "174740.062500",
          "174742.070000",
          "174744.077500",
          "174746.085000",
          "174748.095000",
          "174750.102500",
          "174752.110000",
          "174754.117500",
          "174756.127500",
          "174758.135000",
          "174800.142500",
          "174802.150000",
          "174804.157500",
          "174806.167500",
          "174808.175000",
          "174810.182500",
          "174812.190000"
        ],
        "ContentTime": [
          "174323.238000",
          "174323.238000",
          "174323.238000",
          "174323.238000",
          "174323.238000",
          "174323.254000",
          "174323.254000",
          "174323.254000",
          "174323.254000",
          "174323.254000",
          "174323.254000",
          "174323.269000",
          "174323.269000",
          "174323.269000",
          "174323.269000",
          "174323.285000",
          "174323.285000",
          "174323.285000",
          "174323.285000",
          "174403.222000",
          "174403.222000",
          "174403.222000",
          "174403.238000",
          "174403.238000",
          "174403.238000",
          "174403.238000",
          "174403.254000",
          "174403.254000",
          "174403.254000",
          "174403.254000",
          "174403.254000",
          "174403.254000",
          "174403.254000",
          "174403.269000",
          "174403.269000",
          "174403.269000",
          "174403.269000",
          "174403.269000",
          "174403.269000",
          "174443.222000",
          "174443.222000",
          "174443.222000",
          "174443.238000",
          "174443.238000",
          "174443.238000",
          "174443.238000",
          "174443.238000",
          "174443.238000",
          "174443.238000",
          "174443.254000",
          "174443.254000",
          "174443.254000",
          "174443.254000",
          "174443.254000",
          "174443.254000",
          "174443.269000",
          "174443.269000",
          "174443.269000",
          "174443.269000",
          "174523.222000",
          "174523.222000",
          "174523.222000",
          "174523.238000",
          "174523.238000",
          "174523.238000",
          "174523.238000",
          "174523.238000",
          "174523.254000",
          "174523.254000",
          "174523.254000",
          "174523.254000",
          "174523.254000",
          "174523.254000",
          "174523.269000",
          "174523.269000",
          "174523.269000",
          "174523.269000",
          "174523.269000",
          "174523.285000",
          "174603.222000",
          "174603.222000",
          "174603.238000",
          "174603.238000",
          "174603.238000",
          "174603.238000",
          "174603.254000",
          "174603.254000",
          "174603.254000",
          "174603.254000",
          "174603.254000",
          "174603.269000",
          "174603.269000",
          "174603.269000",
          "174603.269000",
          "174603.269000",
          "174603.269000",
          "174603.269000",
          "174603.285000",
          "174603.285000",
          "174643.222000",
          "174643.222000",
          "174643.222000",
          "174643.238000",
          "174643.238000",
          "174643.238000",
          "174643.238000",
          "174643.238000",
          "174643.254000",
          "174643.254000",
          "174643.254000",
          "174643.254000",
          "174643.254000",
          "174643.254000",
          "174643.269000",
          "174643.269000",
          "174643.269000",
          "174643.269000",
          "174643.269000",
          "174643.269000",
          "174723.222000",
          "174723.222000",
          "174723.222000",
          "174723.238000",
          "174723.238000",
          "174723.238000",
          "174723.238000",
          "174723.238000",
          "174723.238000",
          "174723.238000",
          "174723.254000",
          "174723.254000",
          "174723.254000",
          "174723.254000",
          "174723.254000",
          "174723.254000",
          "174723.254000",
          "174723.269000",
          "174723.269000",
          "174723.269000",
          "174803.222000",
          "174803.222000",
          "174803.222000",
          "174803.238000",
          "174803.238000",
          "174803.238000",
          "174803.238000",
          "174803.238000",
          "174803.238000",
          "174803.238000",
          "174803.254000",
          "174803.254000",
          "174803.254000",
          "174803.254000",
          "174803.254000",
          "174803.254000",
          "174803.269000",
          "174803.269000",
          "174803.269000",
          "174803.269000",
          "174812.769000",
          "174812.769000",
          "174812.769000",
          "174812.769000",
          "174812.769000"
        ],
        "InstanceCreationTime": [
          "174323.238000",
          "174323.238000",
          "174323.238000",
          "174323.238000",
          "174323.238000",
          "174323.254000",
          "174323.254000",
          "174323.254000",
          "174323.254000",
          "174323.254000",
          "174323.254000",
          "174323.269000",
          "174323.269000",
          "174323.269000",
          "174323.269000",
          "174323.285000",
          "174323.285000",
          "174323.285000",
          "174323.285000",
          "174403.222000",
          "174403.222000",
          "174403.222000",
          "174403.238000",
          "174403.238000",
          "174403.238000",
          "174403.238000",
          "174403.254000",
          "174403.254000",
          "174403.254000",
          "174403.254000",
          "174403.254000",
          "174403.254000",
          "174403.254000",
          "174403.269000",
          "174403.269000",
          "174403.269000",
          "174403.269000",
          "174403.269000",
          "174403.269000",
          "174443.222000",
          "174443.222000",
          "174443.222000",
          "174443.238000",
          "174443.238000",
          "174443.238000",
          "174443.238000",
          "174443.238000",
          "174443.238000",
          "174443.238000",
          "174443.254000",
          "174443.254000",
          "174443.254000",
          "174443.254000",
          "174443.254000",
          "174443.254000",
          "174443.269000",
          "174443.269000",
          "174443.269000",
          "174443.269000",
          "174523.222000",
          "174523.222000",
          "174523.222000",
          "174523.238000",
          "174523.238000",
          "174523.238000",
          "174523.238000",
          "174523.238000",
          "174523.254000",
          "174523.254000",
          "174523.254000",
          "174523.254000",
          "174523.254000",
          "174523.254000",
          "174523.269000",
          "174523.269000",
          "174523.269000",
          "174523.269000",
          "174523.269000",
          "174523.285000",
          "174603.222000",
          "174603.222000",
          "174603.238000",
          "174603.238000",
          "174603.238000",
          "174603.238000",
          "174603.254000",
          "174603.254000",
          "174603.254000",
          "174603.254000",
          "174603.254000",
          "174603.269000",
          "174603.269000",
          "174603.269000",
          "174603.269000",
          "174603.269000",
          "174603.269000",
          "174603.269000",
          "174603.285000",
          "174603.285000",
          "174643.222000",
          "174643.222000",
          "174643.222000",
          "174643.238000",
          "174643.238000",
          "174643.238000",
          "174643.238000",
          "174643.238000",
          "174643.254000",
          "174643.254000",
          "174643.254000",
          "174643.254000",
          "174643.254000",
          "174643.254000",
          "174643.269000",
          "174643.269000",
          "174643.269000",
          "174643.269000",
          "174643.269000",
          "174643.269000",
          "174723.222000",
          "174723.222000",
          "174723.222000",
          "174723.238000",
          "174723.238000",
          "174723.238000",
          "174723.238000",
          "174723.238000",
          "174723.238000",
          "174723.238000",
          "174723.254000",
          "174723.254000",
          "174723.254000",
          "174723.254000",
          "174723.254000",
          "174723.254000",
          "174723.254000",
          "174723.269000",
          "174723.269000",
          "174723.269000",
          "174803.222000",
          "174803.222000",
          "174803.222000",
          "174803.238000",
          "174803.238000",
          "174803.238000",
          "174803.238000",
          "174803.238000",
          "174803.238000",
          "174803.238000",
          "174803.254000",
          "174803.254000",
          "174803.254000",
          "174803.254000",
          "174803.254000",
          "174803.254000",
          "174803.269000",
          "174803.269000",
          "174803.269000",
          "174803.269000",
          "174812.769000",
          "174812.769000",
          "174812.769000",
          "174812.769000",
          "174812.769000"
        ],
        "InstanceNumber": [
          1,
          2,
          3,
          4,
          5,
          6,
          7,
          8,
          9,
          10,
          11,
          12,
          13,
          14,
          15,
          16,
          17,
          18,
          19,
          20,
          21,
          22,
          23,
          24,
          25,
          26,
          27,
          28,
          29,
          30,
          31,
          32,
          33,
          34,
          35,
          36,
          37,
          38,
          39,
          40,
          41,
          42,
          43,
          44,
          45,
          46,
          47,
          48,
          49,
          50,
          51,
          52,
          53,
          54,
          55,
          56,
          57,
          58,
          59,
          60,
          61,
          62,
          63,
          64,
          65,
          66,
          67,
          68,
          69,
          70,
          71,
          72,
          73,
          74,
          75,
          76,
          77,
          78,
          79,
          80,
          81,
          82,
          83,
          84,
          85,
          86,
          87,
          88,
          89,
          90,
          91,
          92,
          93,
          94,
          95,
          96,
          97,
          98,
          99,
          100,
          101,
          102,
          103,
          104,
          105,
          106,
          107,
          108,
          109,
          110,
          111,
          112,
          113,
          114,
          115,
          116,
          117,
          118,
          119,
          120,
          121,
          122,
          123,
          124,
          125,
          126,
          127,
          128,
          129,
          130,
          131,
          132,
          133,
          134,
          135,
          136,
          137,
          138,
          139,
          140,
          141,
          142,
          143,
          144,
          145,
          146,
          147,
          148,
          149,
          150,
          151,
          152,
          153,
          154,
          155,
          156,
          157,
          158,
          159,
          160,
          161,
          162,
          163,
          164
        ],
        "WindowCenter": [
          1232.0,
          1229.0,
          1227.0,
          1226.0,
          1226.0,
          1228.0,
          1229.0,
          1229.0,
          1229.0,
          1229.0,
          1229.0,
          1226.0,
          1227.0,
          1226.0,
          1227.0,
          1227.0,
          1226.0,
          1226.0,
          1227.0,
          1226.0,
          1224.0,
          1224.0,
          1226.0,
          1225.0,
          1226.0,
          1226.0,
          1226.0,
          1229.0,
          1230.0,
          1228.0,
          1226.0,
          1223.0,
          1226.0,
          1228.0,
          1229.0,
          1226.0,
          1222.0,
          1217.0,
          1216.0,
          1218.0,
          1221.0,
          1223.0,
          1225.0,
          1227.0,
          1230.0,
          1231.0,
          1231.0,
          1232.0,
          1231.0,
          1232.0,
          1233.0,
          1230.0,
          1231.0,
          1228.0,
          1226.0,
          1226.0,
          1226.0,
          1227.0,
          1228.0,
          1228.0,
          1229.0,
          1229.0,
          1229.0,
          1231.0,
          1231.0,
          1230.0,
          1226.0,
          1225.0,
          1227.0,
          1230.0,
          1231.0,
          1229.0,
          1227.0,
          1228.0,
          1229.0,
          1230.0,
          1227.0,
          1229.0,
          1230.0,
          1229.0,
          1228.0,
          1227.0,
          1227.0,
          1228.0,
          1230.0,
          1230.0,
          1229.0,
          1228.0,
          1228.0,
          1228.0,
          1228.0,
          1227.0,
          1226.0,
          1226.0,
          1229.0,
          1230.0,
          1230.0,
          1230.0,
          1228.0,
          1228.0,
          1228.0,
          1229.0,
          1230.0,
          1231.0,
          1230.0,
          1229.0,
          1230.0,
          1230.0,
          1229.0,
          1228.0,
          1229.0,
          1228.0,
          1230.0,
          1232.0,
          1232.0,
          1229.0,
          1228.0,
          1230.0,
          1230.0,
          1230.0,
          1229.0,
          1229.0,
          1230.0,
          1228.0,
          1227.0,
          1228.0,
          1229.0,
          1229.0,
          1227.0,
          1228.0,
          1228.0,
          1228.0,
          1229.0,
          1230.0,
          1231.0,
          1230.0,
          1228.0,
          1228.0,
          1228.0,
          1227.0,
          1228.0,
          1229.0,
          1228.0,
          1230.0,
          1228.0,
          1226.0,
          1226.0,
          1228.0,
          1230.0,
          1229.0,
          1229.0,
          1230.0,
          1230.0,
          1231.0,
          1230.0,
          1228.0,
          1228.0,
          1229.0,
          1230.0,
          1232.0,
          1231.0,
          1232.0,
          1234.0,
          1234.0
        ],
        "WindowWidth": [
          2928.0,
          2920.0,
          2914.0,
          2911.0,
          2913.0,
          2917.0,
          2918.0,
          2922.0,
          2921.0,
          2924.0,
          2919.0,
          2912.0,
          2913.0,
          2915.0,
          2916.0,
          2914.0,
          2912.0,
          2913.0,
          2915.0,
          2912.0,
          2909.0,
          2911.0,
          2914.0,
          2912.0,
          2909.0,
          2913.0,
          2915.0,
          2922.0,
          2922.0,
          2918.0,
          2914.0,
          2908.0,
          2911.0,
          2923.0,
          2923.0,
          2915.0,
          2900.0,
          2890.0,
          2887.0,
          2894.0,
          2902.0,
          2909.0,
          2912.0,
          2915.0,
          2921.0,
          2924.0,
          2925.0,
          2927.0,
          2928.0,
          2928.0,
          2928.0,
          2924.0,
          2923.0,
          2917.0,
          2916.0,
          2914.0,
          2911.0,
          2914.0,
          2917.0,
          2917.0,
          2919.0,
          2916.0,
          2921.0,
          2925.0,
          2924.0,
          2919.0,
          2909.0,
          2910.0,
          2917.0,
          2921.0,
          2921.0,
          2916.0,
          2913.0,
          2917.0,
          2917.0,
          2921.0,
          2917.0,
          2920.0,
          2922.0,
          2919.0,
          2916.0,
          2916.0,
          2915.0,
