{
  "aor": 0.002243231707317073,
  "aqi": 0.006111385182926829,
  "bids_meta": {
    "AcquisitionMatrixPE": 96,
    "AcquisitionNumber": 1,
    "AcquisitionTime": "18:52:1.137500",
    "BandwidthPerPixelPhaseEncode": 52.083,
    "BaseResolution": 96,
    "BodyPartExamined": "HEAD",
    "ConversionSoftware": "dcm2niix",
    "ConversionSoftwareVersion": "v1.0.20180622 GCC6.3.0",
    "DerivedVendorReportedEchoSpacing": 0.000600004,
    "DeviceSerialNumber": "18926",
    "DwellTime": 2.6e-06,
    "EchoTime": 0.025,
    "EffectiveEchoSpacing": 0.000200001,
    "FlipAngle": 50,
    "ImageOrientationPatientDICOM": [
      0.999992,
      0.00106204,
      0.00396433,
      2.0017e-10,
      0.965938,
      -0.258774
    ],
    "ImageType": [
      "ORIGINAL",
      "PRIMARY",
      "M",
      "ND",
      "ECHO",
      "00",
      "MOSAIC"
    ],
    "InPlanePhaseEncodingDirectionDICOM": "ROW",
    "InstitutionName": "NIMH",
    "InstitutionalDepartmentName": "Department",
    "MRAcquisitionType": "2D",
    "MagneticFieldStrength": 6.98,
    "Manufacturer": "Siemens",
    "ManufacturersModelName": "Investigational_Device_7T",
    "Modality": "MR",
    "ParallelReductionFactorInPlane": 3,
    "PartialFourier": 1,
    "PatientPosition": "HFS",
    "PercentPhaseFOV": 100,
    "PhaseEncodingDirection": "i",
    "PhaseEncodingSteps": 94,
    "PhaseResolution": 1,
    "PixelBandwidth": 2003,
    "ProcedureStepDescription": "MRI_Procedure_Limited",
    "ProtocolName": "NIH_EPI_2.0iso_TR2_Run05",
    "PulseSequenceDetails": "%CustomerSeq%_inati_nih_epi",
    "ReceiveCoilName": "32Ch_Head_7T",
    "ReconMatrixPE": 96,
    "RepetitionTime": 2,
    "SAR": 0.0802965,
    "ScanningSequence": "EP",
    "SequenceName": "epfid2d1_96",
    "SequenceVariant": "SK",
    "SeriesDescription": "NIH_EPI_2.0iso_TR2_Run05",
    "SeriesNumber": 9,
    "ShimSetting": [
      -68,
      215,
      840,
      1199,
      -267,
      642,
      92,
      -480
    ],
    "SliceThickness": 2,
    "SliceTiming": [
      1.0025,
      0,
      1.04,
      0.0375,
      1.0775,
      0.075,
      1.115,
      0.1125,
      1.1525,
      0.1475,
      1.19,
      0.185,
      1.2275,
      0.2225,
      1.265,
      0.26,
      1.3,
      0.2975,
      1.3375,
      0.335,
      1.375,
      0.3725,
      1.4125,
      0.41,
      1.45,
      0.445,
      1.4875,
      0.4825,
      1.525,
      0.52,
      1.5625,
      0.5575,
      1.5975,
      0.595,
      1.635,
      0.6325,
      1.6725,
      0.67,
      1.71,
      0.705,
      1.7475,
      0.7425,
      1.785,
      0.78,
      1.8225,
      0.8175,
      1.8575,
      0.855,
      1.895,
      0.8925,
      1.9325,
      0.93,
      1.97,
      0.9675
    ],
    "SoftwareVersions": "syngo_MR_B17",
    "SpacingBetweenSlices": 2,
    "StationName": "FMRIFD7T",
    "TaskName": "HalfFovNoTask",
    "TotalReadoutTime": 0.0190001,
    "TxRefAmp": 321,
    "dataset": "ds001555",
    "dcmmeta_affine": [
      [
        -1.9999831914901733,
        4.0034059400895217e-10,
        0.008208253420889378,
        95.76705169677734
      ],
      [
        -0.002124078804627061,
        1.9318759441375732,
        -0.517542839050293,
        -54.059513092041016
      ],
      [
        0.007928663864731789,
        0.5175471901893616,
        1.9318597316741943,
        -55.51789474487305
      ],
      [
        0.0,
        0.0,
        0.0,
        1.0
      ]
    ],
    "dcmmeta_reorient_transform": [
      [
        0.0,
        -1.0,
        0.0,
        95.0
      ],
      [
        1.0,
        0.0,
        0.0,
        0.0
      ],
      [
        0.0,
        0.0,
        1.0,
        0.0
      ],
      [
        0.0,
        0.0,
        0.0,
        1.0
      ]
    ],
    "dcmmeta_shape": [
      96,
      96,
      54,
      164
    ],
    "dcmmeta_slice_dim": 2,
    "dcmmeta_version": 0.6,
    "global": {
      "const": {
        "AcquisitionMatrix": [
          0,
          96,
          96,
          0
        ],
        "Allergies": "No Known Allergies",
        "AngioFlag": "N",
        "BitsAllocated": 16,
        "BitsStored": 12,
        "BodyPartExamined": "HEAD",
        "Columns": 768,
        "EchoNumbers": 1,
        "EchoTime": 25.0,
        "EchoTrainLength": 1,
        "FlipAngle": 50.0,
        "HighBit": 11,
        "ImageOrientationPatient": [
          0.99999157803723,
          0.00106203942406,
          0.00396433183257,
          2.001703e-10,
          0.96593800087893,
          -0.2587736046393
        ],
        "ImagePositionPatient": [
          -767.76139276714,
          -779.29273444391,
          164.88092233343
        ],
        "ImageType": [
          "ORIGINAL",
          "PRIMARY",
          "M",
          "ND",
          "ECHO_00",
          "MOSAIC"
        ],
        "ImagedNucleus": "1H",
        "ImagingFrequency": 297.204911,
        "InPlanePhaseEncodingDirection": "ROW",
        "LargestImagePixelValue": 4095,
        "MRAcquisitionType": "2D",
        "MagneticFieldStrength": 6.98,
        "Manufacturer": "SIEMENS",
        "ManufacturerModelName": "Investigational_Device_7T",
        "Modality": "MR",
        "NumberOfAverages": 1.0,
        "NumberOfPhaseEncodingSteps": 94,
        "PercentPhaseFieldOfView": 100.0,
        "PercentSampling": 100.0,
        "PerformedProcedureStepStartTime": "180307.448000",
        "PhotometricInterpretation": "MONOCHROME2",
        "PixelBandwidth": 2003.0,
        "PixelRepresentation": 0,
        "PixelSpacing": [
          2.0,
          2.0
        ],
        "PositionReferenceIndicator": "",
        "ProcedureCodeSequence": [
          {
            "CodeMeaning": "MRI Procedure Limited",
            "CodeValue": "MI01491",
            "CodingSchemeDesignator": "USA Standard",
            "ContextIdentifier": "4000127006"
          }
        ],
        "ProtocolName": "NIH_EPI_2.0iso_TR2_Run05",
        "ReferencedStudySequence": [
          {
            "ReferencedSOPClassUID": "1.2.840.10008.3.1.2.3.1",
            "ReferencedSOPInstanceUID": "1.2.840.113564.9.1.2787814059.53.2.5000092844"
          }
        ],
        "RepetitionTime": 2000.0,
        "RequestedProcedureCodeSequence": [
          {
            "CodeMeaning": "MRI Procedure Limited",
            "CodeValue": "MI01491",
            "CodingSchemeDesignator": "USA Standard",
            "ContextIdentifier": "4000127006"
          }
        ],
        "RequestingService": "NIHM Molecular Imaging Branch",
        "Rows": 768,
        "SAR": 0.08029645587828,
        "SamplesPerPixel": 1,
        "ScanningSequence": "EP",
        "SequenceName": "epfid2d1_96",
        "SequenceVariant": "SK",
        "SeriesDescription": "NIH_EPI_2.0iso_TR2_Run05",
        "SeriesNumber": 9,
        "SliceLocation": -39.244294500806,
        "SliceThickness": 2.0,
        "SmallestImagePixelValue": 0,
        "SoftwareVersions": "syngo MR B17",
        "SpacingBetweenSlices": 1.9999999794435,
        "TransmitCoilName": "32Ch_Head_7T",
        "VariableFlipAngleFlag": "N",
        "WindowCenterWidthExplanation": "Algo1",
        "dBdt": 0.0
      },
      "slices": {}
    },
    "modality": "bold",
    "run_id": 6,
    "session_id": "10",
    "subject_id": "001",
    "task_id": "HalfFovNoTask",
    "time": {
      "samples": {
        "AcquisitionNumber": [
          1,
          2,
          3,
          4,
          5,
          6,
          7,
          8,
          9,
          10,
          11,
          12,
          13,
          14,
          15,
          16,
          17,
          18,
          19,
          20,
          21,
          22,
          23,
          24,
          25,
          26,
          27,
          28,
          29,
          30,
          31,
          32,
          33,
          34,
          35,
          36,
          37,
          38,
          39,
          40,
          41,
          42,
          43,
          44,
          45,
          46,
          47,
          48,
          49,
          50,
          51,
          52,
          53,
          54,
          55,
          56,
          57,
          58,
          59,
          60,
          61,
          62,
          63,
          64,
          65,
          66,
          67,
          68,
          69,
          70,
          71,
          72,
          73,
          74,
          75,
          76,
          77,
          78,
          79,
          80,
          81,
          82,
          83,
          84,
          85,
          86,
          87,
          88,
          89,
          90,
          91,
          92,
          93,
          94,
          95,
          96,
          97,
          98,
          99,
          100,
          101,
          102,
          103,
          104,
          105,
          106,
          107,
          108,
          109,
          110,
          111,
          112,
          113,
          114,
          115,
          116,
          117,
          118,
          119,
          120,
          121,
          122,
          123,
          124,
          125,
          126,
          127,
          128,
          129,
          130,
          131,
          132,
          133,
          134,
          135,
          136,
          137,
          138,
          139,
          140,
          141,
          142,
          143,
          144,
          145,
          146,
          147,
          148,
          149,
          150,
          151,
          152,
          153,
          154,
          155,
          156,
          157,
          158,
          159,
          160,
          161,
          162,
          163,
          164
        ],
        "AcquisitionTime": [
          "185201.137500",
          "185205.155000",
          "185207.162500",
          "185209.170000",
          "185211.180000",
          "185213.187500",
          "185215.195000",
          "185217.202500",
          "185219.210000",
          "185221.220000",
          "185223.227500",
          "185225.235000",
          "185227.242500",
          "185229.250000",
          "185231.260000",
          "185233.267500",
          "185235.275000",
          "185237.282500",
          "185239.290000",
          "185241.300000",
          "185243.307500",
          "185245.315000",
          "185247.322500",
          "185249.332500",
          "185251.340000",
          "185253.347500",
          "185255.355000",
          "185257.362500",
          "185259.372500",
          "185301.380000",
          "185303.387500",
          "185305.395000",
          "185307.402500",
          "185309.412500",
          "185311.420000",
          "185313.427500",
          "185315.435000",
          "185317.445000",
          "185319.452500",
          "185321.460000",
          "185323.467500",
          "185325.475000",
          "185327.485000",
          "185329.492500",
          "185331.500000",
          "185333.507500",
          "185335.515000",
          "185337.525000",
          "185339.532500",
          "185341.540000",
          "185343.547500",
          "185345.557500",
          "185347.565000",
          "185349.572500",
          "185351.580000",
          "185353.587500",
          "185355.597500",
          "185357.605000",
          "185359.612500",
          "185401.620000",
          "185403.627500",
          "185405.637500",
          "185407.645000",
          "185409.652500",
          "185411.660000",
          "185413.667500",
          "185415.677500",
          "185417.685000",
          "185419.692500",
          "185421.700000",
          "185423.710000",
          "185425.717500",
          "185427.725000",
          "185429.732500",
          "185431.740000",
          "185433.750000",
          "185435.757500",
          "185437.765000",
          "185439.772500",
          "185441.780000",
          "185443.790000",
          "185445.797500",
          "185447.805000",
          "185449.812500",
          "185451.822500",
          "185453.830000",
          "185455.837500",
          "185457.845000",
          "185459.852500",
          "185501.862500",
          "185503.870000",
          "185505.877500",
          "185507.885000",
          "185509.892500",
          "185511.902500",
          "185513.910000",
          "185515.917500",
          "185517.925000",
          "185519.935000",
          "185521.942500",
          "185523.950000",
          "185525.957500",
          "185527.965000",
          "185529.975000",
          "185531.982500",
          "185533.990000",
          "185535.997500",
          "185538.005000",
          "185540.015000",
          "185542.022500",
          "185544.030000",
          "185546.037500",
          "185548.045000",
          "185550.055000",
          "185552.062500",
          "185554.070000",
          "185556.077500",
          "185558.087500",
          "185600.095000",
          "185602.102500",
          "185604.110000",
          "185606.117500",
          "185608.127500",
          "185610.135000",
          "185612.142500",
          "185614.150000",
          "185616.157500",
          "185618.167500",
          "185620.175000",
          "185622.182500",
          "185624.190000",
          "185626.200000",
          "185628.207500",
          "185630.215000",
          "185632.222500",
          "185634.230000",
          "185636.240000",
          "185638.247500",
          "185640.255000",
          "185642.262500",
          "185644.270000",
          "185646.280000",
          "185648.287500",
          "185650.295000",
          "185652.302500",
          "185654.312500",
          "185656.320000",
          "185658.327500",
          "185700.335000",
          "185702.342500",
          "185704.352500",
          "185706.360000",
          "185708.367500",
          "185710.375000",
          "185712.382500",
          "185714.392500",
          "185716.400000",
          "185718.407500",
          "185720.415000",
          "185722.425000",
          "185724.432500",
          "185726.440000",
          "185728.447500",
          "185730.455000"
        ],
        "ContentTime": [
          "185303.292000",
          "185303.292000",
          "185303.292000",
          "185303.292000",
          "185303.307000",
          "185303.307000",
          "185303.307000",
          "185303.307000",
          "185303.307000",
          "185303.323000",
          "185303.323000",
          "185303.323000",
          "185303.323000",
          "185303.323000",
          "185303.323000",
          "185303.338000",
          "185303.338000",
          "185303.338000",
          "185303.338000",
          "185303.338000",
          "185303.338000",
          "185303.338000",
          "185303.354000",
          "185303.354000",
          "185303.354000",
          "185303.354000",
          "185303.354000",
          "185303.354000",
          "185303.370000",
          "185343.276000",
          "185343.276000",
          "185343.276000",
          "185343.292000",
          "185343.292000",
          "185343.292000",
          "185343.292000",
          "185343.292000",
          "185343.292000",
          "185343.307000",
          "185343.307000",
          "185343.307000",
          "185343.307000",
          "185343.307000",
          "185343.323000",
          "185343.323000",
          "185343.323000",
          "185343.323000",
          "185343.323000",
          "185343.338000",
          "185423.276000",
          "185423.276000",
          "185423.292000",
          "185423.292000",
          "185423.292000",
          "185423.292000",
          "185423.292000",
          "185423.292000",
          "185423.292000",
          "185423.307000",
          "185423.307000",
          "185423.307000",
          "185423.307000",
          "185423.307000",
          "185423.307000",
          "185423.323000",
          "185423.323000",
          "185423.323000",
          "185423.323000",
          "185423.323000",
          "185503.276000",
          "185503.276000",
          "185503.276000",
          "185503.292000",
          "185503.292000",
          "185503.292000",
          "185503.292000",
          "185503.292000",
          "185503.292000",
          "185503.307000",
          "185503.307000",
          "185503.307000",
          "185503.307000",
          "185503.307000",
          "185503.307000",
          "185503.307000",
          "185503.323000",
          "185503.323000",
          "185503.323000",
          "185503.323000",
          "185543.276000",
          "185543.323000",
          "185543.323000",
          "185543.338000",
          "185543.338000",
          "185543.338000",
          "185543.338000",
          "185543.338000",
          "185543.354000",
          "185543.354000",
          "185543.370000",
          "185543.370000",
          "185543.370000",
          "185543.370000",
          "185543.370000",
          "185543.370000",
          "185543.385000",
          "185543.385000",
          "185543.385000",
          "185543.385000",
          "185623.276000",
          "185623.276000",
          "185623.292000",
          "185623.292000",
          "185623.292000",
          "185623.292000",
          "185623.292000",
          "185623.292000",
          "185623.292000",
          "185623.307000",
          "185623.307000",
          "185623.307000",
          "185623.307000",
          "185623.307000",
          "185623.307000",
          "185623.307000",
          "185623.323000",
          "185623.323000",
          "185623.323000",
          "185623.323000",
          "185703.276000",
          "185703.276000",
          "185703.292000",
          "185703.292000",
          "185703.292000",
          "185703.292000",
          "185703.307000",
          "185703.307000",
          "185703.307000",
          "185703.307000",
          "185703.307000",
          "185703.307000",
          "185703.323000",
          "185703.323000",
          "185703.323000",
          "185703.323000",
          "185703.323000",
          "185703.323000",
          "185703.338000",
          "185703.338000",
          "185731.338000",
          "185731.338000",
          "185731.338000",
          "185731.338000",
          "185731.338000",
          "185731.354000",
          "185731.354000",
          "185731.354000",
          "185731.354000",
          "185731.354000",
          "185731.370000",
          "185731.370000",
          "185731.370000",
          "185731.370000",
          "185731.370000"
        ],
        "InstanceCreationTime": [
          "185303.292000",
          "185303.292000",
          "185303.292000",
          "185303.292000",
          "185303.307000",
          "185303.307000",
          "185303.307000",
          "185303.307000",
          "185303.307000",
          "185303.323000",
          "185303.323000",
          "185303.323000",
          "185303.323000",
          "185303.323000",
          "185303.323000",
          "185303.338000",
          "185303.338000",
          "185303.338000",
          "185303.338000",
          "185303.338000",
          "185303.338000",
          "185303.338000",
          "185303.354000",
          "185303.354000",
          "185303.354000",
          "185303.354000",
          "185303.354000",
          "185303.354000",
          "185303.370000",
          "185343.276000",
          "185343.276000",
          "185343.276000",
          "185343.292000",
          "185343.292000",
          "185343.292000",
          "185343.292000",
          "185343.292000",
          "185343.292000",
          "185343.307000",
          "185343.307000",
          "185343.307000",
          "185343.307000",
          "185343.307000",
          "185343.323000",
          "185343.323000",
          "185343.323000",
          "185343.323000",
          "185343.323000",
          "185343.338000",
          "185423.276000",
          "185423.276000",
          "185423.292000",
          "185423.292000",
          "185423.292000",
          "185423.292000",
          "185423.292000",
          "185423.292000",
          "185423.292000",
          "185423.307000",
          "185423.307000",
          "185423.307000",
          "185423.307000",
          "185423.307000",
          "185423.307000",
          "185423.323000",
          "185423.323000",
          "185423.323000",
          "185423.323000",
          "185423.323000",
          "185503.276000",
          "185503.276000",
          "185503.276000",
          "185503.292000",
          "185503.292000",
          "185503.292000",
          "185503.292000",
          "185503.292000",
          "185503.292000",
          "185503.307000",
          "185503.307000",
          "185503.307000",
          "185503.307000",
          "185503.307000",
          "185503.307000",
          "185503.307000",
          "185503.323000",
          "185503.323000",
          "185503.323000",
          "185503.323000",
          "185543.276000",
          "185543.323000",
          "185543.323000",
          "185543.338000",
          "185543.338000",
          "185543.338000",
          "185543.338000",
          "185543.338000",
          "185543.354000",
          "185543.354000",
          "185543.370000",
          "185543.370000",
          "185543.370000",
          "185543.370000",
          "185543.370000",
          "185543.370000",
          "185543.385000",
          "185543.385000",
          "185543.385000",
          "185543.385000",
          "185623.276000",
          "185623.276000",
          "185623.292000",
          "185623.292000",
          "185623.292000",
          "185623.292000",
          "185623.292000",
          "185623.292000",
          "185623.292000",
          "185623.307000",
          "185623.307000",
          "185623.307000",
          "185623.307000",
          "185623.307000",
          "185623.307000",
          "185623.307000",
          "185623.323000",
          "185623.323000",
          "185623.323000",
          "185623.323000",
          "185703.276000",
          "185703.276000",
          "185703.292000",
          "185703.292000",
          "185703.292000",
          "185703.292000",
          "185703.307000",
          "185703.307000",
          "185703.307000",
          "185703.307000",
          "185703.307000",
          "185703.307000",
          "185703.323000",
          "185703.323000",
          "185703.323000",
          "185703.323000",
          "185703.323000",
          "185703.323000",
          "185703.338000",
          "185703.338000",
          "185731.338000",
          "185731.338000",
          "185731.338000",
          "185731.338000",
          "185731.338000",
          "185731.354000",
          "185731.354000",
          "185731.354000",
          "185731.354000",
          "185731.354000",
          "185731.370000",
          "185731.370000",
          "185731.370000",
          "185731.370000",
          "185731.370000"
        ],
        "InstanceNumber": [
          1,
          2,
          3,
          4,
          5,
          6,
          7,
          8,
          9,
          10,
          11,
          12,
          13,
          14,
          15,
          16,
          17,
          18,
          19,
          20,
          21,
          22,
          23,
          24,
          25,
          26,
          27,
          28,
          29,
          30,
          31,
          32,
          33,
          34,
          35,
          36,
          37,
          38,
          39,
          40,
          41,
          42,
          43,
          44,
          45,
          46,
          47,
          48,
          49,
          50,
          51,
          52,
          53,
          54,
          55,
          56,
          57,
          58,
          59,
          60,
          61,
          62,
          63,
          64,
          65,
          66,
          67,
          68,
          69,
          70,
          71,
          72,
          73,
          74,
          75,
          76,
          77,
          78,
          79,
          80,
          81,
          82,
          83,
          84,
          85,
          86,
          87,
          88,
          89,
          90,
          91,
          92,
          93,
          94,
          95,
          96,
          97,
          98,
          99,
          100,
          101,
          102,
          103,
          104,
          105,
          106,
          107,
          108,
          109,
          110,
          111,
          112,
          113,
          114,
          115,
          116,
          117,
          118,
          119,
          120,
          121,
          122,
          123,
          124,
          125,
          126,
          127,
          128,
          129,
          130,
          131,
          132,
          133,
          134,
          135,
          136,
          137,
          138,
          139,
          140,
          141,
          142,
          143,
          144,
          145,
          146,
          147,
          148,
          149,
          150,
          151,
          152,
          153,
          154,
          155,
          156,
          157,
          158,
          159,
          160,
          161,
          162,
          163,
          164
        ],
        "WindowCenter": [
          1185.0,
          1183.0,
          1183.0,
          1182.0,
          1182.0,
          1181.0,
          1181.0,
          1182.0,
          1183.0,
          1183.0,
          1183.0,
          1182.0,
          1182.0,
          1182.0,
          1184.0,
          1184.0,
          1182.0,
          1182.0,
          1182.0,
          1182.0,
          1182.0,
          1184.0,
          1186.0,
          1185.0,
          1185.0,
          1183.0,
          1182.0,
          1184.0,
          1185.0,
          1185.0,
          1184.0,
          1182.0,
          1183.0,
          1184.0,
          1184.0,
          1185.0,
          1185.0,
          1185.0,
          1186.0,
          1187.0,
          1187.0,
          1185.0,
          1184.0,
          1184.0,
          1183.0,
          1183.0,
          1183.0,
          1185.0,
          1184.0,
          1183.0,
          1185.0,
          1184.0,
          1182.0,
          1182.0,
          1181.0,
          1184.0,
          1184.0,
          1182.0,
          1181.0,
          1182.0,
          1181.0,
          1183.0,
          1182.0,
          1182.0,
          1182.0,
          1182.0,
          1182.0,
          1182.0,
          1182.0,
          1183.0,
          1183.0,
          1181.0,
          1182.0,
          1184.0,
          1187.0,
          1187.0,
          1184.0,
          1183.0,
          1185.0,
          1185.0,
          1184.0,
          1183.0,
          1182.0,
          1183.0,
          1181.0,
          1181.0,
          1181.0,
          1181.0,
          1182.0,
          1183.0,
          1182.0,
          1183.0,
          1183.0,
          1185.0,
          1184.0,
          1183.0,
          1183.0,
          1184.0,
          1184.0,
          1184.0,
          1185.0,
          1186.0,
          1185.0,
          1184.0,
          1184.0,
          1183.0,
          1184.0,
          1184.0,
          1184.0,
          1184.0,
          1182.0,
          1182.0,
          1184.0,
          1187.0,
          1188.0,
          1184.0,
          1184.0,
          1185.0,
          1184.0,
          1183.0,
          1182.0,
          1180.0,
          1180.0,
          1180.0,
          1182.0,
          1183.0,
          1184.0,
          1184.0,
          1184.0,
          1184.0,
          1184.0,
          1185.0,
          1185.0,
          1185.0,
          1184.0,
          1183.0,
          1184.0,
          1183.0,
          1183.0,
          1184.0,
          1183.0,
          1182.0,
          1183.0,
          1182.0,
          1183.0,
          1183.0,
          1181.0,
          1183.0,
          1184.0,
          1182.0,
          1180.0,
          1179.0,
          1176.0,
          1174.0,
          1177.0,
          1178.0,
          1180.0,
          1183.0,
          1185.0,
          1185.0,
          1185.0,
          1187.0,
          1188.0,
          1189.0
        ],
        "WindowWidth": [
          2814.0,
          2809.0,
          2808.0,
          2805.0,
          2805.0,
          2805.0,
          2805.0,
          2808.0,
          2808.0,
          2810.0,
          2808.0,
          2808.0,
          2807.0,
          2808.0,
          2813.0,
          2811.0,
          2809.0,
          2808.0,
          2806.0,
          2807.0,
          2809.0,
          2815.0,
          2818.0,
          2814.0,
          2813.0,
          2809.0,
          2807.0,
          2811.0,
          2814.0,
          2812.0,
          2810.0,
          2809.0,
          2811.0,
          2811.0,
          2811.0,
          2814.0,
          2815.0,
          2814.0,
          2817.0,
          2818.0,
          2817.0,
          2815.0,
          2814.0,
          2814.0,
          2812.0,
          2810.0,
          2812.0,
          2815.0,
          2812.0,
          2811.0,
          2813.0,
          2811.0,
          2808.0,
          2807.0,
          2808.0,
          2812.0,
          2811.0,
          2805.0,
          2802.0,
          2803.0,
          2802.0,
          2806.0,
          2806.0,
          2807.0,
          2808.0,
          2806.0,
          2807.0,
          2807.0,
          2806.0,
          2808.0,
          2808.0,
          2803.0,
          2805.0,
          2812.0,
          2822.0,
          2816.0,
          2805.0,
          2809.0,
          2815.0,
          2814.0,
          2810.0,
          2809.0,
