{
  "aor": 0.0009609146341463416,
  "aqi": 0.005699014146341464,
  "bids_meta": {
    "AcquisitionMatrixPE": 96,
    "AcquisitionNumber": 1,
    "AcquisitionTime": "19:38:46.565000",
    "BandwidthPerPixelPhaseEncode": 52.083,
    "BaseResolution": 96,
    "BodyPartExamined": "HEAD",
    "ConversionSoftware": "dcm2niix",
    "ConversionSoftwareVersion": "v1.0.20180622 GCC6.3.0",
    "DerivedVendorReportedEchoSpacing": 0.000600004,
    "DeviceSerialNumber": "18926",
    "DwellTime": 2.6e-06,
    "EchoTime": 0.025,
    "EffectiveEchoSpacing": 0.000200001,
    "FlipAngle": 50,
    "ImageOrientationPatientDICOM": [
      0.999992,
      0.00106204,
      0.00396433,
      2.0017e-10,
      0.965938,
      -0.258774
    ],
    "ImageType": [
      "ORIGINAL",
      "PRIMARY",
      "M",
      "ND",
      "ECHO",
      "00",
      "MOSAIC"
    ],
    "InPlanePhaseEncodingDirectionDICOM": "ROW",
    "InstitutionName": "NIMH",
    "InstitutionalDepartmentName": "Department",
    "MRAcquisitionType": "2D",
    "MagneticFieldStrength": 6.98,
    "Manufacturer": "Siemens",
    "ManufacturersModelName": "Investigational_Device_7T",
    "Modality": "MR",
    "ParallelReductionFactorInPlane": 3,
    "PartialFourier": 1,
    "PatientPosition": "HFS",
    "PercentPhaseFOV": 100,
    "PhaseEncodingDirection": "i",
    "PhaseEncodingSteps": 94,
    "PhaseResolution": 1,
    "PixelBandwidth": 2003,
    "ProcedureStepDescription": "MRI_Procedure_Limited",
    "ProtocolName": "NIH_EPI_2.0iso_TR2_Run12",
    "PulseSequenceDetails": "%CustomerSeq%_inati_nih_epi",
    "ReceiveCoilName": "32Ch_Head_7T",
    "ReconMatrixPE": 96,
    "RepetitionTime": 2,
    "SAR": 0.0802965,
    "ScanningSequence": "EP",
    "SequenceName": "epfid2d1_96",
    "SequenceVariant": "SK",
    "SeriesDescription": "NIH_EPI_2.0iso_TR2_Run12",
    "SeriesNumber": 16,
    "ShimSetting": [
      -68,
      215,
      840,
      1199,
      -267,
      642,
      92,
      -480
    ],
    "SliceThickness": 2,
    "SliceTiming": [
      1.0025,
      0,
      1.04,
      0.0375,
      1.0775,
      0.075,
      1.115,
      0.11,
      1.1525,
      0.1475,
      1.19,
      0.185,
      1.2275,
      0.2225,
      1.2625,
      0.26,
      1.3,
      0.2975,
      1.3375,
      0.335,
      1.375,
      0.3725,
      1.4125,
      0.4075,
      1.45,
      0.445,
      1.4875,
      0.4825,
      1.525,
      0.52,
      1.56,
      0.5575,
      1.5975,
      0.595,
      1.635,
      0.6325,
      1.6725,
      0.67,
      1.71,
      0.705,
      1.7475,
      0.7425,
      1.785,
      0.78,
      1.8225,
      0.8175,
      1.8575,
      0.855,
      1.895,
      0.8925,
      1.9325,
      0.93,
      1.97,
      0.965
    ],
    "SoftwareVersions": "syngo_MR_B17",
    "SpacingBetweenSlices": 2,
    "StationName": "FMRIFD7T",
    "TaskName": "HalfFovNoTask",
    "TotalReadoutTime": 0.0190001,
    "TxRefAmp": 321,
    "dataset": "ds001555",
    "dcmmeta_affine": [
      [
        -1.9999831914901733,
        4.0034059400895217e-10,
        0.008208253420889378,
        95.76705169677734
      ],
      [
        -0.002124078804627061,
        1.9318759441375732,
        -0.517542839050293,
        -54.059513092041016
      ],
      [
        0.007928663864731789,
        0.5175471901893616,
        1.9318597316741943,
        -55.51789474487305
      ],
      [
        0.0,
        0.0,
        0.0,
        1.0
      ]
    ],
    "dcmmeta_reorient_transform": [
      [
        0.0,
        -1.0,
        0.0,
        95.0
      ],
      [
        1.0,
        0.0,
        0.0,
        0.0
      ],
      [
        0.0,
        0.0,
        1.0,
        0.0
      ],
      [
        0.0,
        0.0,
        0.0,
        1.0
      ]
    ],
    "dcmmeta_shape": [
      96,
      96,
      54,
      164
    ],
    "dcmmeta_slice_dim": 2,
    "dcmmeta_version": 0.6,
    "global": {
      "const": {
        "AcquisitionMatrix": [
          0,
          96,
          96,
          0
        ],
        "Allergies": "No Known Allergies",
        "AngioFlag": "N",
        "BitsAllocated": 16,
        "BitsStored": 12,
        "BodyPartExamined": "HEAD",
        "Columns": 768,
        "EchoNumbers": 1,
        "EchoTime": 25.0,
        "EchoTrainLength": 1,
        "FlipAngle": 50.0,
        "HighBit": 11,
        "ImageOrientationPatient": [
          0.99999157803723,
          0.00106203942406,
          0.00396433183257,
          2.001703e-10,
          0.96593800087893,
          -0.2587736046393
        ],
        "ImagePositionPatient": [
          -767.76139276714,
          -779.29273444391,
          164.88092233343
        ],
        "ImageType": [
          "ORIGINAL",
          "PRIMARY",
          "M",
          "ND",
          "ECHO_00",
          "MOSAIC"
        ],
        "ImagedNucleus": "1H",
        "ImagingFrequency": 297.20502,
        "InPlanePhaseEncodingDirection": "ROW",
        "LargestImagePixelValue": 4095,
        "MRAcquisitionType": "2D",
        "MagneticFieldStrength": 6.98,
        "Manufacturer": "SIEMENS",
        "ManufacturerModelName": "Investigational_Device_7T",
        "Modality": "MR",
        "NumberOfAverages": 1.0,
        "NumberOfPhaseEncodingSteps": 94,
        "PercentPhaseFieldOfView": 100.0,
        "PercentSampling": 100.0,
        "PerformedProcedureStepStartTime": "180307.448000",
        "PhotometricInterpretation": "MONOCHROME2",
        "PixelBandwidth": 2003.0,
        "PixelRepresentation": 0,
        "PixelSpacing": [
          2.0,
          2.0
        ],
        "PositionReferenceIndicator": "",
        "ProcedureCodeSequence": [
          {
            "CodeMeaning": "MRI Procedure Limited",
            "CodeValue": "MI01491",
            "CodingSchemeDesignator": "USA Standard",
            "ContextIdentifier": "4000127006"
          }
        ],
        "ProtocolName": "NIH_EPI_2.0iso_TR2_Run12",
        "ReferencedStudySequence": [
          {
            "ReferencedSOPClassUID": "1.2.840.10008.3.1.2.3.1",
            "ReferencedSOPInstanceUID": "1.2.840.113564.9.1.2787814059.53.2.5000092844"
          }
        ],
        "RepetitionTime": 2000.0,
        "RequestedProcedureCodeSequence": [
          {
            "CodeMeaning": "MRI Procedure Limited",
            "CodeValue": "MI01491",
            "CodingSchemeDesignator": "USA Standard",
            "ContextIdentifier": "4000127006"
          }
        ],
        "RequestingService": "NIHM Molecular Imaging Branch",
        "Rows": 768,
        "SAR": 0.08029645587828,
        "SamplesPerPixel": 1,
        "ScanningSequence": "EP",
        "SequenceName": "epfid2d1_96",
        "SequenceVariant": "SK",
        "SeriesDescription": "NIH_EPI_2.0iso_TR2_Run12",
        "SeriesNumber": 16,
        "SliceLocation": -39.244294500806,
        "SliceThickness": 2.0,
        "SmallestImagePixelValue": 0,
        "SoftwareVersions": "syngo MR B17",
        "SpacingBetweenSlices": 1.9999999794435,
        "TransmitCoilName": "32Ch_Head_7T",
        "VariableFlipAngleFlag": "N",
        "WindowCenterWidthExplanation": "Algo1",
        "dBdt": 0.0
      },
      "slices": {}
    },
    "modality": "bold",
    "run_id": 13,
    "session_id": "10",
    "subject_id": "001",
    "task_id": "HalfFovNoTask",
    "time": {
      "samples": {
        "AcquisitionNumber": [
          1,
          2,
          3,
          4,
          5,
          6,
          7,
          8,
          9,
          10,
          11,
          12,
          13,
          14,
          15,
          16,
          17,
          18,
          19,
          20,
          21,
          22,
          23,
          24,
          25,
          26,
          27,
          28,
          29,
          30,
          31,
          32,
          33,
          34,
          35,
          36,
          37,
          38,
          39,
          40,
          41,
          42,
          43,
          44,
          45,
          46,
          47,
          48,
          49,
          50,
          51,
          52,
          53,
          54,
          55,
          56,
          57,
          58,
          59,
          60,
          61,
          62,
          63,
          64,
          65,
          66,
          67,
          68,
          69,
          70,
          71,
          72,
          73,
          74,
          75,
          76,
          77,
          78,
          79,
          80,
          81,
          82,
          83,
          84,
          85,
          86,
          87,
          88,
          89,
          90,
          91,
          92,
          93,
          94,
          95,
          96,
          97,
          98,
          99,
          100,
          101,
          102,
          103,
          104,
          105,
          106,
          107,
          108,
          109,
          110,
          111,
          112,
          113,
          114,
          115,
          116,
          117,
          118,
          119,
          120,
          121,
          122,
          123,
          124,
          125,
          126,
          127,
          128,
          129,
          130,
          131,
          132,
          133,
          134,
          135,
          136,
          137,
          138,
          139,
          140,
          141,
          142,
          143,
          144,
          145,
          146,
          147,
          148,
          149,
          150,
          151,
          152,
          153,
          154,
          155,
          156,
          157,
          158,
          159,
          160,
          161,
          162,
          163,
          164
        ],
        "AcquisitionTime": [
          "193846.565000",
          "193850.582500",
          "193852.590000",
          "193854.597500",
          "193856.605000",
          "193858.615000",
          "193900.622500",
          "193902.630000",
          "193904.637500",
          "193906.645000",
          "193908.655000",
          "193910.662500",
          "193912.670000",
          "193914.677500",
          "193916.687500",
          "193918.695000",
          "193920.702500",
          "193922.710000",
          "193924.717500",
          "193926.727500",
          "193928.735000",
          "193930.742500",
          "193932.750000",
          "193934.757500",
          "193936.767500",
          "193938.775000",
          "193940.782500",
          "193942.790000",
          "193944.800000",
          "193946.807500",
          "193948.815000",
          "193950.822500",
          "193952.830000",
          "193954.840000",
          "193956.847500",
          "193958.855000",
          "194000.862500",
          "194002.870000",
          "194004.880000",
          "194006.887500",
          "194008.895000",
          "194010.902500",
          "194012.912500",
          "194014.920000",
          "194016.927500",
          "194018.935000",
          "194020.942500",
          "194022.952500",
          "194024.960000",
          "194026.967500",
          "194028.975000",
          "194030.982500",
          "194032.992500",
          "194035.000000",
          "194037.007500",
          "194039.015000",
          "194041.025000",
          "194043.032500",
          "194045.040000",
          "194047.047500",
          "194049.055000",
          "194051.065000",
          "194053.072500",
          "194055.080000",
          "194057.087500",
          "194059.095000",
          "194101.105000",
          "194103.112500",
          "194105.120000",
          "194107.127500",
          "194109.135000",
          "194111.145000",
          "194113.152500",
          "194115.160000",
          "194117.167500",
          "194119.177500",
          "194121.185000",
          "194123.192500",
          "194125.200000",
          "194127.207500",
          "194129.217500",
          "194131.225000",
          "194133.232500",
          "194135.240000",
          "194137.247500",
          "194139.257500",
          "194141.265000",
          "194143.272500",
          "194145.280000",
          "194147.290000",
          "194149.297500",
          "194151.305000",
          "194153.312500",
          "194155.320000",
          "194157.330000",
          "194159.337500",
          "194201.345000",
          "194203.352500",
          "194205.360000",
          "194207.370000",
          "194209.377500",
          "194211.385000",
          "194213.392500",
          "194215.402500",
          "194217.410000",
          "194219.417500",
          "194221.425000",
          "194223.432500",
          "194225.442500",
          "194227.450000",
          "194229.457500",
          "194231.465000",
          "194233.472500",
          "194235.482500",
          "194237.490000",
          "194239.497500",
          "194241.505000",
          "194243.512500",
          "194245.522500",
          "194247.530000",
          "194249.537500",
          "194251.545000",
          "194253.555000",
          "194255.562500",
          "194257.570000",
          "194259.577500",
          "194301.585000",
          "194303.595000",
          "194305.602500",
          "194307.610000",
          "194309.617500",
          "194311.625000",
          "194313.635000",
          "194315.642500",
          "194317.650000",
          "194319.657500",
          "194321.667500",
          "194323.675000",
          "194325.682500",
          "194327.690000",
          "194329.697500",
          "194331.707500",
          "194333.715000",
          "194335.722500",
          "194337.730000",
          "194339.737500",
          "194341.747500",
          "194343.755000",
          "194345.762500",
          "194347.770000",
          "194349.780000",
          "194351.787500",
          "194353.795000",
          "194355.802500",
          "194357.810000",
          "194359.820000",
          "194401.827500",
          "194403.835000",
          "194405.842500",
          "194407.850000",
          "194409.860000",
          "194411.867500",
          "194413.875000",
          "194415.882500"
        ],
        "ContentTime": [
          "193936.635000",
          "193936.635000",
          "193936.635000",
          "193936.651000",
          "193936.651000",
          "193936.651000",
          "193936.651000",
          "193936.651000",
          "193936.651000",
          "193936.651000",
          "193936.667000",
          "193936.667000",
          "193936.667000",
          "193936.667000",
          "193936.667000",
          "193936.682000",
          "193936.682000",
          "193936.682000",
          "193936.682000",
          "193936.682000",
          "193936.682000",
          "193936.698000",
          "193936.698000",
          "193936.698000",
          "194016.620000",
          "194016.620000",
          "194016.620000",
          "194016.635000",
          "194016.635000",
          "194016.635000",
          "194016.635000",
          "194016.635000",
          "194016.651000",
          "194016.651000",
          "194016.651000",
          "194016.651000",
          "194016.651000",
          "194016.651000",
          "194016.651000",
          "194016.667000",
          "194016.667000",
          "194016.667000",
          "194016.667000",
          "194016.682000",
          "194056.620000",
          "194056.620000",
          "194056.620000",
          "194056.620000",
          "194056.620000",
          "194056.635000",
          "194056.635000",
          "194056.635000",
          "194056.635000",
          "194056.635000",
          "194056.651000",
          "194056.651000",
          "194056.651000",
          "194056.651000",
          "194056.667000",
          "194056.667000",
          "194056.667000",
          "194056.667000",
          "194056.667000",
          "194056.667000",
          "194136.620000",
          "194136.620000",
          "194136.635000",
          "194136.635000",
          "194136.635000",
          "194136.635000",
          "194136.635000",
          "194136.635000",
          "194136.651000",
          "194136.651000",
          "194136.651000",
          "194136.651000",
          "194136.651000",
          "194136.651000",
          "194136.651000",
          "194136.667000",
          "194136.667000",
          "194136.667000",
          "194136.667000",
          "194136.667000",
          "194216.620000",
          "194216.620000",
          "194216.620000",
          "194216.635000",
          "194216.635000",
          "194216.635000",
          "194216.635000",
          "194216.635000",
          "194216.635000",
          "194216.651000",
          "194216.651000",
          "194216.651000",
          "194216.651000",
          "194216.667000",
          "194216.667000",
          "194216.667000",
          "194216.667000",
          "194216.667000",
          "194216.667000",
          "194216.667000",
          "194256.620000",
          "194256.620000",
          "194256.635000",
          "194256.635000",
          "194256.635000",
          "194256.635000",
          "194256.635000",
          "194256.635000",
          "194256.651000",
          "194256.651000",
          "194256.651000",
          "194256.651000",
          "194256.651000",
          "194256.667000",
          "194256.667000",
          "194256.667000",
          "194256.667000",
          "194256.667000",
          "194256.667000",
          "194256.667000",
          "194336.620000",
          "194336.620000",
          "194336.620000",
          "194336.635000",
          "194336.635000",
          "194336.635000",
          "194336.635000",
          "194336.635000",
          "194336.635000",
          "194336.651000",
          "194336.651000",
          "194336.651000",
          "194336.651000",
          "194336.651000",
          "194336.651000",
          "194336.651000",
          "194336.667000",
          "194336.667000",
          "194336.667000",
          "194336.667000",
          "194415.963000",
          "194415.979000",
          "194415.979000",
          "194415.979000",
          "194415.979000",
          "194415.979000",
          "194415.979000",
          "194415.995000",
          "194415.995000",
          "194415.995000",
          "194415.995000",
          "194415.995000",
          "194415.995000",
          "194415.995000",
          "194416.010000",
          "194416.010000",
          "194416.010000",
          "194416.010000",
          "194416.010000",
          "194416.010000"
        ],
        "InstanceCreationTime": [
          "193936.635000",
          "193936.635000",
          "193936.635000",
          "193936.651000",
          "193936.651000",
          "193936.651000",
          "193936.651000",
          "193936.651000",
          "193936.651000",
          "193936.651000",
          "193936.667000",
          "193936.667000",
          "193936.667000",
          "193936.667000",
          "193936.667000",
          "193936.682000",
          "193936.682000",
          "193936.682000",
          "193936.682000",
          "193936.682000",
          "193936.682000",
          "193936.698000",
          "193936.698000",
          "193936.698000",
          "194016.620000",
          "194016.620000",
          "194016.620000",
          "194016.635000",
          "194016.635000",
          "194016.635000",
          "194016.635000",
          "194016.635000",
          "194016.651000",
          "194016.651000",
          "194016.651000",
          "194016.651000",
          "194016.651000",
          "194016.651000",
          "194016.651000",
          "194016.667000",
          "194016.667000",
          "194016.667000",
          "194016.667000",
          "194016.682000",
          "194056.620000",
          "194056.620000",
          "194056.620000",
          "194056.620000",
          "194056.620000",
          "194056.635000",
          "194056.635000",
          "194056.635000",
          "194056.635000",
          "194056.635000",
          "194056.651000",
          "194056.651000",
          "194056.651000",
          "194056.651000",
          "194056.667000",
          "194056.667000",
          "194056.667000",
          "194056.667000",
          "194056.667000",
          "194056.667000",
          "194136.620000",
          "194136.620000",
          "194136.635000",
          "194136.635000",
          "194136.635000",
          "194136.635000",
          "194136.635000",
          "194136.635000",
          "194136.651000",
          "194136.651000",
          "194136.651000",
          "194136.651000",
          "194136.651000",
          "194136.651000",
          "194136.651000",
          "194136.667000",
          "194136.667000",
          "194136.667000",
          "194136.667000",
          "194136.667000",
          "194216.620000",
          "194216.620000",
          "194216.620000",
          "194216.635000",
          "194216.635000",
          "194216.635000",
          "194216.635000",
          "194216.635000",
          "194216.635000",
          "194216.651000",
          "194216.651000",
          "194216.651000",
          "194216.651000",
          "194216.667000",
          "194216.667000",
          "194216.667000",
          "194216.667000",
          "194216.667000",
          "194216.667000",
          "194216.667000",
          "194256.620000",
          "194256.620000",
          "194256.635000",
          "194256.635000",
          "194256.635000",
          "194256.635000",
          "194256.635000",
          "194256.635000",
          "194256.651000",
          "194256.651000",
          "194256.651000",
          "194256.651000",
          "194256.651000",
          "194256.667000",
          "194256.667000",
          "194256.667000",
          "194256.667000",
          "194256.667000",
          "194256.667000",
          "194256.667000",
          "194336.620000",
          "194336.620000",
          "194336.620000",
          "194336.635000",
          "194336.635000",
          "194336.635000",
          "194336.635000",
          "194336.635000",
          "194336.635000",
          "194336.651000",
          "194336.651000",
          "194336.651000",
          "194336.651000",
          "194336.651000",
          "194336.651000",
          "194336.651000",
          "194336.667000",
          "194336.667000",
          "194336.667000",
          "194336.667000",
          "194415.963000",
          "194415.979000",
          "194415.979000",
          "194415.979000",
          "194415.979000",
          "194415.979000",
          "194415.979000",
          "194415.995000",
          "194415.995000",
          "194415.995000",
          "194415.995000",
          "194415.995000",
          "194415.995000",
          "194415.995000",
          "194416.010000",
          "194416.010000",
          "194416.010000",
          "194416.010000",
          "194416.010000",
          "194416.010000"
        ],
        "InstanceNumber": [
          1,
          2,
          3,
          4,
          5,
          6,
          7,
          8,
          9,
          10,
          11,
          12,
          13,
          14,
          15,
          16,
          17,
          18,
          19,
          20,
          21,
          22,
          23,
          24,
          25,
          26,
          27,
          28,
          29,
          30,
          31,
          32,
          33,
          34,
          35,
          36,
          37,
          38,
          39,
          40,
          41,
          42,
          43,
          44,
          45,
          46,
          47,
          48,
          49,
          50,
          51,
          52,
          53,
          54,
          55,
          56,
          57,
          58,
          59,
          60,
          61,
          62,
          63,
          64,
          65,
          66,
          67,
          68,
          69,
          70,
          71,
          72,
          73,
          74,
          75,
          76,
          77,
          78,
          79,
          80,
          81,
          82,
          83,
          84,
          85,
          86,
          87,
          88,
          89,
          90,
          91,
          92,
          93,
          94,
          95,
          96,
          97,
          98,
          99,
          100,
          101,
          102,
          103,
          104,
          105,
          106,
          107,
          108,
          109,
          110,
          111,
          112,
          113,
          114,
          115,
          116,
          117,
          118,
          119,
          120,
          121,
          122,
          123,
          124,
          125,
          126,
          127,
          128,
          129,
          130,
          131,
          132,
          133,
          134,
          135,
          136,
          137,
          138,
          139,
          140,
          141,
          142,
          143,
          144,
          145,
          146,
          147,
          148,
          149,
          150,
          151,
          152,
          153,
          154,
          155,
          156,
          157,
          158,
          159,
          160,
          161,
          162,
          163,
          164
        ],
        "WindowCenter": [
          1192.0,
          1191.0,
          1193.0,
          1192.0,
          1190.0,
          1190.0,
          1190.0,
          1190.0,
          1189.0,
          1189.0,
          1188.0,
          1189.0,
          1189.0,
          1191.0,
          1190.0,
          1190.0,
          1190.0,
          1191.0,
          1191.0,
          1192.0,
          1193.0,
          1193.0,
          1192.0,
          1192.0,
          1192.0,
          1191.0,
          1192.0,
          1196.0,
          1197.0,
          1193.0,
          1190.0,
          1191.0,
          1194.0,
          1193.0,
          1191.0,
          1191.0,
          1190.0,
          1190.0,
          1191.0,
          1189.0,
          1189.0,
          1191.0,
          1191.0,
          1190.0,
          1191.0,
          1192.0,
          1193.0,
          1192.0,
          1192.0,
          1193.0,
          1195.0,
          1194.0,
          1192.0,
          1193.0,
          1192.0,
          1190.0,
          1189.0,
          1189.0,
          1191.0,
          1192.0,
          1191.0,
          1192.0,
          1191.0,
          1191.0,
          1191.0,
          1190.0,
          1191.0,
          1189.0,
          1188.0,
          1188.0,
          1188.0,
          1187.0,
          1190.0,
          1194.0,
          1194.0,
          1193.0,
          1193.0,
          1191.0,
          1191.0,
          1195.0,
          1195.0,
          1190.0,
          1186.0,
          1188.0,
          1190.0,
          1189.0,
          1189.0,
          1191.0,
          1194.0,
          1193.0,
          1191.0,
          1191.0,
          1191.0,
          1191.0,
          1191.0,
          1190.0,
          1189.0,
          1189.0,
          1190.0,
          1190.0,
          1188.0,
          1188.0,
          1187.0,
          1186.0,
          1185.0,
          1186.0,
          1188.0,
          1190.0,
          1189.0,
          1189.0,
          1189.0,
          1190.0,
          1192.0,
          1193.0,
          1193.0,
          1194.0,
          1194.0,
          1194.0,
          1192.0,
          1191.0,
          1191.0,
          1192.0,
          1193.0,
          1192.0,
          1191.0,
          1190.0,
          1189.0,
          1189.0,
          1190.0,
          1189.0,
          1189.0,
          1189.0,
          1190.0,
          1192.0,
          1192.0,
          1191.0,
          1192.0,
          1193.0,
          1194.0,
          1192.0,
          1191.0,
          1192.0,
          1191.0,
          1192.0,
          1191.0,
          1190.0,
          1191.0,
          1190.0,
          1190.0,
          1190.0,
          1190.0,
          1191.0,
          1193.0,
          1192.0,
          1192.0,
          1193.0,
          1193.0,
          1193.0,
          1194.0,
          1194.0,
          1195.0,
          1195.0,
          1195.0,
          1196.0
        ],
        "WindowWidth": [
          2821.0,
          2822.0,
          2824.0,
          2821.0,
          2815.0,
          2814.0,
          2815.0,
          2815.0,
          2813.0,
          2812.0,
          2810.0,
          2810.0,
          2814.0,
          2816.0,
          2815.0,
          2813.0,
          2815.0,
          2817.0,
          2819.0,
          2824.0,
          2825.0,
          2823.0,
          2822.0,
          2822.0,
          2823.0,
          2822.0,
          2825.0,
          2835.0,
          2831.0,
          2822.0,
          2816.0,
          2822.0,
          2825.0,
          2821.0,
          2816.0,
          2816.0,
          2818.0,
          2817.0,
          2816.0,
          2812.0,
          2813.0,
          2818.0,
          2821.0,
          2813.0,
          2815.0,
          2821.0,
          2821.0,
          2820.0,
          2820.0,
          2821.0,
          2825.0,
          2823.0,
          2822.0,
          2823.0,
          2819.0,
          2812.0,
          2812.0,
          2815.0,
          2818.0,
          2820.0,
          2818.0,
          2817.0,
          2818.0,
          2815.0,
          2816.0,
          2816.0,
          2814.0,
          2812.0,
          2808.0,
          2806.0,
          2808.0,
          2805.0,
          2818.0,
          2824.0,
          2823.0,
          2820.0,
          2816.0,
          2816.0,
          2817.0,
          2828.0,
          2827.0,
          2809.0,
