{
  "aor": 0.0019707926829268295,
  "aqi": 0.004956876585365854,
  "bids_meta": {
    "AcquisitionMatrixPE": 96,
    "AcquisitionNumber": 1,
    "AcquisitionTime": "19:04:37.622500",
    "BandwidthPerPixelPhaseEncode": 52.083,
    "BaseResolution": 96,
    "BodyPartExamined": "HEAD",
    "ConversionSoftware": "dcm2niix",
    "ConversionSoftwareVersion": "v1.0.20180622 GCC6.3.0",
    "DerivedVendorReportedEchoSpacing": 0.000600004,
    "DeviceSerialNumber": "18926",
    "DwellTime": 2.6e-06,
    "EchoTime": 0.025,
    "EffectiveEchoSpacing": 0.000200001,
    "FlipAngle": 50,
    "ImageOrientationPatientDICOM": [
      0.999992,
      0.00106204,
      0.00396433,
      2.0017e-10,
      0.965938,
      -0.258774
    ],
    "ImageType": [
      "ORIGINAL",
      "PRIMARY",
      "M",
      "ND",
      "ECHO",
      "00",
      "MOSAIC"
    ],
    "InPlanePhaseEncodingDirectionDICOM": "ROW",
    "InstitutionName": "NIMH",
    "InstitutionalDepartmentName": "Department",
    "MRAcquisitionType": "2D",
    "MagneticFieldStrength": 6.98,
    "Manufacturer": "Siemens",
    "ManufacturersModelName": "Investigational_Device_7T",
    "Modality": "MR",
    "ParallelReductionFactorInPlane": 3,
    "PartialFourier": 1,
    "PatientPosition": "HFS",
    "PercentPhaseFOV": 100,
    "PhaseEncodingDirection": "i",
    "PhaseEncodingSteps": 94,
    "PhaseResolution": 1,
    "PixelBandwidth": 2003,
    "ProcedureStepDescription": "MRI_Procedure_Limited",
    "ProtocolName": "NIH_EPI_2.0iso_TR2_Run07",
    "PulseSequenceDetails": "%CustomerSeq%_inati_nih_epi",
    "ReceiveCoilName": "32Ch_Head_7T",
    "ReconMatrixPE": 96,
    "RepetitionTime": 2,
    "SAR": 0.0802965,
    "ScanningSequence": "EP",
    "SequenceName": "epfid2d1_96",
    "SequenceVariant": "SK",
    "SeriesDescription": "NIH_EPI_2.0iso_TR2_Run07",
    "SeriesNumber": 11,
    "ShimSetting": [
      -68,
      215,
      840,
      1199,
      -267,
      642,
      92,
      -480
    ],
    "SliceThickness": 2,
    "SliceTiming": [
      1.005,
      0,
      1.0425,
      0.0375,
      1.08,
      0.075,
      1.1175,
      0.1125,
      1.1525,
      0.15,
      1.19,
      0.1875,
      1.2275,
      0.225,
      1.265,
      0.26,
      1.3025,
      0.2975,
      1.34,
      0.335,
      1.3775,
      0.3725,
      1.4125,
      0.41,
      1.45,
      0.4475,
      1.4875,
      0.485,
      1.525,
      0.5225,
      1.5625,
      0.5575,
      1.6,
      0.595,
      1.6375,
      0.6325,
      1.675,
      0.67,
      1.71,
      0.7075,
      1.7475,
      0.745,
      1.785,
      0.7825,
      1.8225,
      0.82,
      1.86,
      0.855,
      1.8975,
      0.8925,
      1.935,
      0.93,
      1.9725,
      0.9675
    ],
    "SoftwareVersions": "syngo_MR_B17",
    "SpacingBetweenSlices": 2,
    "StationName": "FMRIFD7T",
    "TaskName": "HalfFovNoTask",
    "TotalReadoutTime": 0.0190001,
    "TxRefAmp": 321,
    "dataset": "ds001555",
    "dcmmeta_affine": [
      [
        -1.9999831914901733,
        4.0034059400895217e-10,
        0.008208253420889378,
        95.76705169677734
      ],
      [
        -0.002124078804627061,
        1.9318759441375732,
        -0.517542839050293,
        -54.059513092041016
      ],
      [
        0.007928663864731789,
        0.5175471901893616,
        1.9318597316741943,
        -55.51789474487305
      ],
      [
        0.0,
        0.0,
        0.0,
        1.0
      ]
    ],
    "dcmmeta_reorient_transform": [
      [
        0.0,
        -1.0,
        0.0,
        95.0
      ],
      [
        1.0,
        0.0,
        0.0,
        0.0
      ],
      [
        0.0,
        0.0,
        1.0,
        0.0
      ],
      [
        0.0,
        0.0,
        0.0,
        1.0
      ]
    ],
    "dcmmeta_shape": [
      96,
      96,
      54,
      164
    ],
    "dcmmeta_slice_dim": 2,
    "dcmmeta_version": 0.6,
    "global": {
      "const": {
        "AcquisitionMatrix": [
          0,
          96,
          96,
          0
        ],
        "Allergies": "No Known Allergies",
        "AngioFlag": "N",
        "BitsAllocated": 16,
        "BitsStored": 12,
        "BodyPartExamined": "HEAD",
        "Columns": 768,
        "EchoNumbers": 1,
        "EchoTime": 25.0,
        "EchoTrainLength": 1,
        "FlipAngle": 50.0,
        "HighBit": 11,
        "ImageOrientationPatient": [
          0.99999157803723,
          0.00106203942406,
          0.00396433183257,
          2.001703e-10,
          0.96593800087893,
          -0.2587736046393
        ],
        "ImagePositionPatient": [
          -767.76139276714,
          -779.29273444391,
          164.88092233343
        ],
        "ImageType": [
          "ORIGINAL",
          "PRIMARY",
          "M",
          "ND",
          "ECHO_00",
          "MOSAIC"
        ],
        "ImagedNucleus": "1H",
        "ImagingFrequency": 297.204943,
        "InPlanePhaseEncodingDirection": "ROW",
        "LargestImagePixelValue": 4095,
        "MRAcquisitionType": "2D",
        "MagneticFieldStrength": 6.98,
        "Manufacturer": "SIEMENS",
        "ManufacturerModelName": "Investigational_Device_7T",
        "Modality": "MR",
        "NumberOfAverages": 1.0,
        "NumberOfPhaseEncodingSteps": 94,
        "PercentPhaseFieldOfView": 100.0,
        "PercentSampling": 100.0,
        "PerformedProcedureStepStartTime": "180307.448000",
        "PhotometricInterpretation": "MONOCHROME2",
        "PixelBandwidth": 2003.0,
        "PixelRepresentation": 0,
        "PixelSpacing": [
          2.0,
          2.0
        ],
        "PositionReferenceIndicator": "",
        "ProcedureCodeSequence": [
          {
            "CodeMeaning": "MRI Procedure Limited",
            "CodeValue": "MI01491",
            "CodingSchemeDesignator": "USA Standard",
            "ContextIdentifier": "4000127006"
          }
        ],
        "ProtocolName": "NIH_EPI_2.0iso_TR2_Run07",
        "ReferencedStudySequence": [
          {
            "ReferencedSOPClassUID": "1.2.840.10008.3.1.2.3.1",
            "ReferencedSOPInstanceUID": "1.2.840.113564.9.1.2787814059.53.2.5000092844"
          }
        ],
        "RepetitionTime": 2000.0,
        "RequestedProcedureCodeSequence": [
          {
            "CodeMeaning": "MRI Procedure Limited",
            "CodeValue": "MI01491",
            "CodingSchemeDesignator": "USA Standard",
            "ContextIdentifier": "4000127006"
          }
        ],
        "RequestingService": "NIHM Molecular Imaging Branch",
        "Rows": 768,
        "SAR": 0.08029645587828,
        "SamplesPerPixel": 1,
        "ScanningSequence": "EP",
        "SequenceName": "epfid2d1_96",
        "SequenceVariant": "SK",
        "SeriesDescription": "NIH_EPI_2.0iso_TR2_Run07",
        "SeriesNumber": 11,
        "SliceLocation": -39.244294500806,
        "SliceThickness": 2.0,
        "SmallestImagePixelValue": 0,
        "SoftwareVersions": "syngo MR B17",
        "SpacingBetweenSlices": 1.9999999794435,
        "TransmitCoilName": "32Ch_Head_7T",
        "VariableFlipAngleFlag": "N",
        "WindowCenterWidthExplanation": "Algo1",
        "dBdt": 0.0
      },
      "slices": {}
    },
    "modality": "bold",
    "run_id": 8,
    "session_id": "10",
    "subject_id": "001",
    "task_id": "HalfFovNoTask",
    "time": {
      "samples": {
        "AcquisitionNumber": [
          1,
          2,
          3,
          4,
          5,
          6,
          7,
          8,
          9,
          10,
          11,
          12,
          13,
          14,
          15,
          16,
          17,
          18,
          19,
          20,
          21,
          22,
          23,
          24,
          25,
          26,
          27,
          28,
          29,
          30,
          31,
          32,
          33,
          34,
          35,
          36,
          37,
          38,
          39,
          40,
          41,
          42,
          43,
          44,
          45,
          46,
          47,
          48,
          49,
          50,
          51,
          52,
          53,
          54,
          55,
          56,
          57,
          58,
          59,
          60,
          61,
          62,
          63,
          64,
          65,
          66,
          67,
          68,
          69,
          70,
          71,
          72,
          73,
          74,
          75,
          76,
          77,
          78,
          79,
          80,
          81,
          82,
          83,
          84,
          85,
          86,
          87,
          88,
          89,
          90,
          91,
          92,
          93,
          94,
          95,
          96,
          97,
          98,
          99,
          100,
          101,
          102,
          103,
          104,
          105,
          106,
          107,
          108,
          109,
          110,
          111,
          112,
          113,
          114,
          115,
          116,
          117,
          118,
          119,
          120,
          121,
          122,
          123,
          124,
          125,
          126,
          127,
          128,
          129,
          130,
          131,
          132,
          133,
          134,
          135,
          136,
          137,
          138,
          139,
          140,
          141,
          142,
          143,
          144,
          145,
          146,
          147,
          148,
          149,
          150,
          151,
          152,
          153,
          154,
          155,
          156,
          157,
          158,
          159,
          160,
          161,
          162,
          163,
          164
        ],
        "AcquisitionTime": [
          "190437.622500",
          "190441.637500",
          "190443.647500",
          "190445.655000",
          "190447.662500",
          "190449.670000",
          "190451.677500",
          "190453.687500",
          "190455.695000",
          "190457.702500",
          "190459.710000",
          "190501.717500",
          "190503.727500",
          "190505.735000",
          "190507.742500",
          "190509.750000",
          "190511.760000",
          "190513.767500",
          "190515.775000",
          "190517.782500",
          "190519.790000",
          "190521.800000",
          "190523.807500",
          "190525.815000",
          "190527.822500",
          "190529.830000",
          "190531.840000",
          "190533.847500",
          "190535.855000",
          "190537.862500",
          "190539.870000",
          "190541.880000",
          "190543.887500",
          "190545.895000",
          "190547.902500",
          "190549.912500",
          "190551.920000",
          "190553.927500",
          "190555.935000",
          "190557.942500",
          "190559.952500",
          "190601.960000",
          "190603.967500",
          "190605.975000",
          "190607.982500",
          "190609.992500",
          "190612.000000",
          "190614.007500",
          "190616.015000",
          "190618.025000",
          "190620.032500",
          "190622.040000",
          "190624.047500",
          "190626.055000",
          "190628.065000",
          "190630.072500",
          "190632.080000",
          "190634.087500",
          "190636.095000",
          "190638.105000",
          "190640.112500",
          "190642.120000",
          "190644.127500",
          "190646.137500",
          "190648.145000",
          "190650.152500",
          "190652.160000",
          "190654.167500",
          "190656.177500",
          "190658.185000",
          "190700.192500",
          "190702.200000",
          "190704.207500",
          "190706.217500",
          "190708.225000",
          "190710.232500",
          "190712.240000",
          "190714.250000",
          "190716.257500",
          "190718.265000",
          "190720.272500",
          "190722.280000",
          "190724.290000",
          "190726.297500",
          "190728.305000",
          "190730.312500",
          "190732.320000",
          "190734.330000",
          "190736.337500",
          "190738.345000",
          "190740.352500",
          "190742.360000",
          "190744.370000",
          "190746.377500",
          "190748.385000",
          "190750.392500",
          "190752.402500",
          "190754.410000",
          "190756.417500",
          "190758.425000",
          "190800.432500",
          "190802.442500",
          "190804.450000",
          "190806.457500",
          "190808.465000",
          "190810.472500",
          "190812.482500",
          "190814.490000",
          "190816.497500",
          "190818.505000",
          "190820.515000",
          "190822.522500",
          "190824.530000",
          "190826.537500",
          "190828.545000",
          "190830.555000",
          "190832.562500",
          "190834.570000",
          "190836.577500",
          "190838.585000",
          "190840.595000",
          "190842.602500",
          "190844.610000",
          "190846.617500",
          "190848.627500",
          "190850.635000",
          "190852.642500",
          "190854.650000",
          "190856.657500",
          "190858.667500",
          "190900.675000",
          "190902.682500",
          "190904.690000",
          "190906.697500",
          "190908.707500",
          "190910.715000",
          "190912.722500",
          "190914.730000",
          "190916.737500",
          "190918.747500",
          "190920.755000",
          "190922.762500",
          "190924.770000",
          "190926.780000",
          "190928.787500",
          "190930.795000",
          "190932.802500",
          "190934.810000",
          "190936.820000",
          "190938.827500",
          "190940.835000",
          "190942.842500",
          "190944.850000",
          "190946.860000",
          "190948.867500",
          "190950.875000",
          "190952.882500",
          "190954.892500",
          "190956.900000",
          "190958.907500",
          "191000.915000",
          "191002.922500",
          "191004.932500",
          "191006.940000"
        ],
        "ContentTime": [
          "190520.135000",
          "190520.151000",
          "190520.151000",
          "190520.151000",
          "190520.151000",
          "190520.151000",
          "190520.151000",
          "190520.167000",
          "190520.167000",
          "190520.167000",
          "190520.167000",
          "190520.167000",
          "190520.167000",
          "190520.167000",
          "190520.182000",
          "190520.182000",
          "190520.182000",
          "190520.182000",
          "190520.182000",
          "190520.182000",
          "190600.120000",
          "190600.120000",
          "190600.135000",
          "190600.135000",
          "190600.135000",
          "190600.135000",
          "190600.135000",
          "190600.151000",
          "190600.151000",
          "190600.151000",
          "190600.151000",
          "190600.151000",
          "190600.151000",
          "190600.167000",
          "190600.167000",
          "190600.167000",
          "190600.167000",
          "190600.167000",
          "190600.167000",
          "190600.182000",
          "190620.120000",
          "190620.120000",
          "190620.120000",
          "190620.135000",
          "190620.135000",
          "190620.135000",
          "190620.135000",
          "190620.135000",
          "190620.135000",
          "190620.135000",
          "190700.120000",
          "190700.120000",
          "190700.120000",
          "190700.135000",
          "190700.135000",
          "190700.135000",
          "190700.135000",
          "190700.135000",
          "190700.135000",
          "190700.151000",
          "190700.151000",
          "190700.151000",
          "190700.151000",
          "190700.151000",
          "190700.167000",
          "190700.167000",
          "190700.167000",
          "190700.167000",
          "190700.167000",
          "190700.167000",
          "190740.120000",
          "190740.120000",
          "190740.135000",
          "190740.135000",
          "190740.135000",
          "190740.135000",
          "190740.135000",
          "190740.135000",
          "190740.135000",
          "190740.151000",
          "190740.151000",
          "190740.151000",
          "190740.151000",
          "190740.151000",
          "190740.167000",
          "190740.167000",
          "190740.167000",
          "190740.167000",
          "190740.167000",
          "190740.167000",
          "190820.120000",
          "190820.120000",
          "190820.120000",
          "190820.135000",
          "190820.135000",
          "190820.135000",
          "190820.135000",
          "190820.135000",
          "190820.135000",
          "190820.135000",
          "190820.151000",
          "190820.151000",
          "190820.151000",
          "190820.151000",
          "190820.151000",
          "190820.151000",
          "190820.151000",
          "190820.167000",
          "190820.167000",
          "190820.167000",
          "190900.120000",
          "190900.120000",
          "190900.120000",
          "190900.135000",
          "190900.135000",
          "190900.135000",
          "190900.135000",
          "190900.135000",
          "190900.135000",
          "190900.135000",
          "190900.151000",
          "190900.151000",
          "190900.151000",
          "190900.151000",
          "190900.151000",
          "190900.151000",
          "190900.151000",
          "190900.167000",
          "190900.167000",
          "190900.167000",
          "190940.120000",
          "190940.120000",
          "190940.120000",
          "190940.135000",
          "190940.135000",
          "190940.135000",
          "190940.135000",
          "190940.135000",
          "190940.135000",
          "190940.135000",
          "190940.151000",
          "190940.151000",
          "190940.151000",
          "190940.151000",
          "190940.167000",
          "190940.167000",
          "190940.167000",
          "190940.167000",
          "190940.167000",
          "190940.167000",
          "191007.198000",
          "191007.198000",
          "191007.198000",
          "191007.198000",
          "191007.213000",
          "191007.213000",
          "191007.213000",
          "191007.213000",
          "191007.213000",
          "191007.229000",
          "191007.229000",
          "191007.229000",
          "191007.229000",
          "191007.229000"
        ],
        "InstanceCreationTime": [
          "190520.135000",
          "190520.151000",
          "190520.151000",
          "190520.151000",
          "190520.151000",
          "190520.151000",
          "190520.151000",
          "190520.167000",
          "190520.167000",
          "190520.167000",
          "190520.167000",
          "190520.167000",
          "190520.167000",
          "190520.167000",
          "190520.182000",
          "190520.182000",
          "190520.182000",
          "190520.182000",
          "190520.182000",
          "190520.182000",
          "190600.120000",
          "190600.120000",
          "190600.135000",
          "190600.135000",
          "190600.135000",
          "190600.135000",
          "190600.135000",
          "190600.151000",
          "190600.151000",
          "190600.151000",
          "190600.151000",
          "190600.151000",
          "190600.151000",
          "190600.167000",
          "190600.167000",
          "190600.167000",
          "190600.167000",
          "190600.167000",
          "190600.167000",
          "190600.182000",
          "190620.120000",
          "190620.120000",
          "190620.120000",
          "190620.135000",
          "190620.135000",
          "190620.135000",
          "190620.135000",
          "190620.135000",
          "190620.135000",
          "190620.135000",
          "190700.120000",
          "190700.120000",
          "190700.120000",
          "190700.135000",
          "190700.135000",
          "190700.135000",
          "190700.135000",
          "190700.135000",
          "190700.135000",
          "190700.151000",
          "190700.151000",
          "190700.151000",
          "190700.151000",
          "190700.151000",
          "190700.167000",
          "190700.167000",
          "190700.167000",
          "190700.167000",
          "190700.167000",
          "190700.167000",
          "190740.120000",
          "190740.120000",
          "190740.135000",
          "190740.135000",
          "190740.135000",
          "190740.135000",
          "190740.135000",
          "190740.135000",
          "190740.135000",
          "190740.151000",
          "190740.151000",
          "190740.151000",
          "190740.151000",
          "190740.151000",
          "190740.167000",
          "190740.167000",
          "190740.167000",
          "190740.167000",
          "190740.167000",
          "190740.167000",
          "190820.120000",
          "190820.120000",
          "190820.120000",
          "190820.135000",
          "190820.135000",
          "190820.135000",
          "190820.135000",
          "190820.135000",
          "190820.135000",
          "190820.135000",
          "190820.151000",
          "190820.151000",
          "190820.151000",
          "190820.151000",
          "190820.151000",
          "190820.151000",
          "190820.151000",
          "190820.167000",
          "190820.167000",
          "190820.167000",
          "190900.120000",
          "190900.120000",
          "190900.120000",
          "190900.135000",
          "190900.135000",
          "190900.135000",
          "190900.135000",
          "190900.135000",
          "190900.135000",
          "190900.135000",
          "190900.151000",
          "190900.151000",
          "190900.151000",
          "190900.151000",
          "190900.151000",
          "190900.151000",
          "190900.151000",
          "190900.167000",
          "190900.167000",
          "190900.167000",
          "190940.120000",
          "190940.120000",
          "190940.120000",
          "190940.135000",
          "190940.135000",
          "190940.135000",
          "190940.135000",
          "190940.135000",
          "190940.135000",
          "190940.135000",
          "190940.151000",
          "190940.151000",
          "190940.151000",
          "190940.151000",
          "190940.167000",
          "190940.167000",
          "190940.167000",
          "190940.167000",
          "190940.167000",
          "190940.167000",
          "191007.198000",
          "191007.198000",
          "191007.198000",
          "191007.198000",
          "191007.213000",
          "191007.213000",
          "191007.213000",
          "191007.213000",
          "191007.213000",
          "191007.229000",
          "191007.229000",
          "191007.229000",
          "191007.229000",
          "191007.229000"
        ],
        "InstanceNumber": [
          1,
          2,
          3,
          4,
          5,
          6,
          7,
          8,
          9,
          10,
          11,
          12,
          13,
          14,
          15,
          16,
          17,
          18,
          19,
          20,
          21,
          22,
          23,
          24,
          25,
          26,
          27,
          28,
          29,
          30,
          31,
          32,
          33,
          34,
          35,
          36,
          37,
          38,
          39,
          40,
          41,
          42,
          43,
          44,
          45,
          46,
          47,
          48,
          49,
          50,
          51,
          52,
          53,
          54,
          55,
          56,
          57,
          58,
          59,
          60,
          61,
          62,
          63,
          64,
          65,
          66,
          67,
          68,
          69,
          70,
          71,
          72,
          73,
          74,
          75,
          76,
          77,
          78,
          79,
          80,
          81,
          82,
          83,
          84,
          85,
          86,
          87,
          88,
          89,
          90,
          91,
          92,
          93,
          94,
          95,
          96,
          97,
          98,
          99,
          100,
          101,
          102,
          103,
          104,
          105,
          106,
          107,
          108,
          109,
          110,
          111,
          112,
          113,
          114,
          115,
          116,
          117,
          118,
          119,
          120,
          121,
          122,
          123,
          124,
          125,
          126,
          127,
          128,
          129,
          130,
          131,
          132,
          133,
          134,
          135,
          136,
          137,
          138,
          139,
          140,
          141,
          142,
          143,
          144,
          145,
          146,
          147,
          148,
          149,
          150,
          151,
          152,
          153,
          154,
          155,
          156,
          157,
          158,
          159,
          160,
          161,
          162,
          163,
          164
        ],
        "WindowCenter": [
          1186.0,
          1185.0,
          1187.0,
          1189.0,
          1188.0,
          1186.0,
          1183.0,
          1183.0,
          1185.0,
          1185.0,
          1186.0,
          1187.0,
          1187.0,
          1184.0,
          1184.0,
          1185.0,
          1186.0,
          1186.0,
          1184.0,
          1184.0,
          1184.0,
          1184.0,
          1186.0,
          1185.0,
          1186.0,
          1186.0,
          1186.0,
          1187.0,
          1187.0,
          1185.0,
          1186.0,
          1185.0,
          1188.0,
          1188.0,
          1188.0,
          1186.0,
          1185.0,
          1186.0,
          1187.0,
          1186.0,
          1187.0,
          1188.0,
          1185.0,
          1186.0,
          1185.0,
          1186.0,
          1186.0,
          1185.0,
          1186.0,
          1187.0,
          1186.0,
          1185.0,
          1185.0,
          1185.0,
          1186.0,
          1185.0,
          1185.0,
          1185.0,
          1186.0,
          1187.0,
          1188.0,
          1187.0,
          1188.0,
          1188.0,
          1188.0,
          1189.0,
          1189.0,
          1188.0,
          1189.0,
          1190.0,
          1189.0,
          1189.0,
          1188.0,
          1187.0,
          1188.0,
          1188.0,
          1189.0,
          1189.0,
          1189.0,
          1190.0,
          1190.0,
          1188.0,
          1190.0,
          1190.0,
          1187.0,
          1187.0,
          1189.0,
          1188.0,
          1189.0,
          1186.0,
          1184.0,
          1184.0,
          1185.0,
          1186.0,
          1185.0,
          1184.0,
          1184.0,
          1185.0,
          1187.0,
          1186.0,
          1185.0,
          1185.0,
          1187.0,
          1189.0,
          1189.0,
          1188.0,
          1188.0,
          1186.0,
          1185.0,
          1184.0,
          1184.0,
          1184.0,
          1185.0,
          1187.0,
          1187.0,
          1187.0,
          1187.0,
          1188.0,
          1186.0,
          1187.0,
          1187.0,
          1187.0,
          1187.0,
          1186.0,
          1187.0,
          1188.0,
          1188.0,
          1188.0,
          1187.0,
          1186.0,
          1186.0,
          1187.0,
          1187.0,
          1187.0,
          1187.0,
          1186.0,
          1187.0,
          1188.0,
          1188.0,
          1188.0,
          1189.0,
          1188.0,
          1186.0,
          1185.0,
          1187.0,
          1190.0,
          1187.0,
          1185.0,
          1185.0,
          1185.0,
          1184.0,
          1185.0,
          1184.0,
          1185.0,
          1186.0,
          1186.0,
          1187.0,
          1186.0,
          1186.0,
          1188.0,
          1190.0,
          1187.0,
          1187.0,
          1190.0
        ],
        "WindowWidth": [
          2814.0,
          2815.0,
          2819.0,
          2821.0,
          2819.0,
          2812.0,
          2805.0,
          2806.0,
          2811.0,
          2812.0,
          2817.0,
          2820.0,
          2816.0,
          2807.0,
          2811.0,
          2816.0,
          2817.0,
          2817.0,
          2811.0,
          2810.0,
          2811.0,
          2812.0,
          2814.0,
          2815.0,
          2814.0,
          2816.0,
          2817.0,
          2816.0,
          2817.0,
          2815.0,
          2815.0,
          2814.0,
          2821.0,
          2824.0,
          2821.0,
          2817.0,
          2817.0,
          2818.0,
          2816.0,
          2815.0,
          2817.0,
          2816.0,
          2811.0,
          2817.0,
          2816.0,
          2814.0,
          2814.0,
          2814.0,
          2814.0,
          2816.0,
          2815.0,
          2812.0,
          2812.0,
          2812.0,
          2814.0,
          2813.0,
          2811.0,
          2815.0,
          2817.0,
          2818.0,
          2820.0,
          2820.0,
          2822.0,
          2823.0,
          2822.0,
          2824.0,
          2823.0,
          2824.0,
          2826.0,
          2824.0,
          2821.0,
          2821.0,
          2821.0,
          2819.0,
          2820.0,
          2819.0,
          2821.0,
          2824.0,
          2825.0,
          2825.0,
          2823.0,
          2823.0,
