{
  "aor": 0.0017176219512195121,
  "aqi": 0.005861549695121951,
  "bids_meta": {
    "AcquisitionMatrixPE": 96,
    "AcquisitionNumber": 1,
    "AcquisitionTime": "18:22:52.505000",
    "BandwidthPerPixelPhaseEncode": 52.083,
    "BaseResolution": 96,
    "BodyPartExamined": "HEAD",
    "ConversionSoftware": "dcm2niix",
    "ConversionSoftwareVersion": "v1.0.20180622 GCC6.3.0",
    "DerivedVendorReportedEchoSpacing": 0.000600004,
    "DeviceSerialNumber": "18926",
    "DwellTime": 2.6e-06,
    "EchoTime": 0.025,
    "EffectiveEchoSpacing": 0.000200001,
    "FlipAngle": 50,
    "ImageOrientationPatientDICOM": [
      0.999992,
      0.00106204,
      0.00396433,
      2.0017e-10,
      0.965938,
      -0.258774
    ],
    "ImageType": [
      "ORIGINAL",
      "PRIMARY",
      "M",
      "ND",
      "ECHO",
      "00",
      "MOSAIC"
    ],
    "InPlanePhaseEncodingDirectionDICOM": "ROW",
    "InstitutionName": "NIMH",
    "InstitutionalDepartmentName": "Department",
    "MRAcquisitionType": "2D",
    "MagneticFieldStrength": 6.98,
    "Manufacturer": "Siemens",
    "ManufacturersModelName": "Investigational_Device_7T",
    "Modality": "MR",
    "ParallelReductionFactorInPlane": 3,
    "PartialFourier": 1,
    "PatientPosition": "HFS",
    "PercentPhaseFOV": 100,
    "PhaseEncodingDirection": "i",
    "PhaseEncodingSteps": 94,
    "PhaseResolution": 1,
    "PixelBandwidth": 2003,
    "ProcedureStepDescription": "MRI_Procedure_Limited",
    "ProtocolName": "NIH_EPI_2.0iso_TR2_Run01",
    "PulseSequenceDetails": "%CustomerSeq%_inati_nih_epi",
    "ReceiveCoilName": "32Ch_Head_7T",
    "ReconMatrixPE": 96,
    "RepetitionTime": 2,
    "SAR": 0.0802965,
    "ScanningSequence": "EP",
    "SequenceName": "epfid2d1_96",
    "SequenceVariant": "SK",
    "SeriesDescription": "NIH_EPI_2.0iso_TR2_Run01",
    "SeriesNumber": 5,
    "ShimSetting": [
      -68,
      215,
      840,
      1199,
      -267,
      642,
      92,
      -480
    ],
    "SliceThickness": 2,
    "SliceTiming": [
      1.005,
      0,
      1.04,
      0.0375,
      1.0775,
      0.075,
      1.115,
      0.1125,
      1.1525,
      0.15,
      1.19,
      0.185,
      1.2275,
      0.2225,
      1.265,
      0.26,
      1.3025,
      0.2975,
      1.3375,
      0.335,
      1.375,
      0.3725,
      1.4125,
      0.41,
      1.45,
      0.4475,
      1.4875,
      0.4825,
      1.525,
      0.52,
      1.5625,
      0.5575,
      1.6,
      0.595,
      1.635,
      0.6325,
      1.6725,
      0.67,
      1.71,
      0.7075,
      1.7475,
      0.745,
      1.785,
      0.78,
      1.8225,
      0.8175,
      1.86,
      0.855,
      1.8975,
      0.8925,
      1.9325,
      0.93,
      1.97,
      0.9675
    ],
    "SoftwareVersions": "syngo_MR_B17",
    "SpacingBetweenSlices": 2,
    "StationName": "FMRIFD7T",
    "TaskName": "HalfFovNoTask",
    "TotalReadoutTime": 0.0190001,
    "TxRefAmp": 321,
    "dataset": "ds001555",
    "dcmmeta_affine": [
      [
        -1.9999831914901733,
        4.0034059400895217e-10,
        0.008208253420889378,
        95.76705169677734
      ],
      [
        -0.002124078804627061,
        1.9318759441375732,
        -0.517542839050293,
        -54.059513092041016
      ],
      [
        0.007928663864731789,
        0.5175471901893616,
        1.9318597316741943,
        -55.51789474487305
      ],
      [
        0.0,
        0.0,
        0.0,
        1.0
      ]
    ],
    "dcmmeta_reorient_transform": [
      [
        0.0,
        -1.0,
        0.0,
        95.0
      ],
      [
        1.0,
        0.0,
        0.0,
        0.0
      ],
      [
        0.0,
        0.0,
        1.0,
        0.0
      ],
      [
        0.0,
        0.0,
        0.0,
        1.0
      ]
    ],
    "dcmmeta_shape": [
      96,
      96,
      54,
      164
    ],
    "dcmmeta_slice_dim": 2,
    "dcmmeta_version": 0.6,
    "global": {
      "const": {
        "AcquisitionMatrix": [
          0,
          96,
          96,
          0
        ],
        "Allergies": "No Known Allergies",
        "AngioFlag": "N",
        "BitsAllocated": 16,
        "BitsStored": 12,
        "BodyPartExamined": "HEAD",
        "Columns": 768,
        "EchoNumbers": 1,
        "EchoTime": 25.0,
        "EchoTrainLength": 1,
        "FlipAngle": 50.0,
        "HighBit": 11,
        "ImageOrientationPatient": [
          0.99999157803723,
          0.00106203942406,
          0.00396433183257,
          2.001703e-10,
          0.96593800087893,
          -0.2587736046393
        ],
        "ImagePositionPatient": [
          -767.76139276714,
          -779.29273444391,
          164.88092233343
        ],
        "ImageType": [
          "ORIGINAL",
          "PRIMARY",
          "M",
          "ND",
          "ECHO_00",
          "MOSAIC"
        ],
        "ImagedNucleus": "1H",
        "ImagingFrequency": 297.204823,
        "InPlanePhaseEncodingDirection": "ROW",
        "LargestImagePixelValue": 4095,
        "MRAcquisitionType": "2D",
        "MagneticFieldStrength": 6.98,
        "Manufacturer": "SIEMENS",
        "ManufacturerModelName": "Investigational_Device_7T",
        "Modality": "MR",
        "NumberOfAverages": 1.0,
        "NumberOfPhaseEncodingSteps": 94,
        "PercentPhaseFieldOfView": 100.0,
        "PercentSampling": 100.0,
        "PerformedProcedureStepStartTime": "180307.448000",
        "PhotometricInterpretation": "MONOCHROME2",
        "PixelBandwidth": 2003.0,
        "PixelRepresentation": 0,
        "PixelSpacing": [
          2.0,
          2.0
        ],
        "PositionReferenceIndicator": "",
        "ProcedureCodeSequence": [
          {
            "CodeMeaning": "MRI Procedure Limited",
            "CodeValue": "MI01491",
            "CodingSchemeDesignator": "USA Standard",
            "ContextIdentifier": "4000127006"
          }
        ],
        "ProtocolName": "NIH_EPI_2.0iso_TR2_Run01",
        "ReferencedStudySequence": [
          {
            "ReferencedSOPClassUID": "1.2.840.10008.3.1.2.3.1",
            "ReferencedSOPInstanceUID": "1.2.840.113564.9.1.2787814059.53.2.5000092844"
          }
        ],
        "RepetitionTime": 2000.0,
        "RequestedProcedureCodeSequence": [
          {
            "CodeMeaning": "MRI Procedure Limited",
            "CodeValue": "MI01491",
            "CodingSchemeDesignator": "USA Standard",
            "ContextIdentifier": "4000127006"
          }
        ],
        "RequestingService": "NIHM Molecular Imaging Branch",
        "Rows": 768,
        "SAR": 0.08029645587828,
        "SamplesPerPixel": 1,
        "ScanningSequence": "EP",
        "SequenceName": "epfid2d1_96",
        "SequenceVariant": "SK",
        "SeriesDescription": "NIH_EPI_2.0iso_TR2_Run01",
        "SeriesNumber": 5,
        "SliceLocation": -39.244294500806,
        "SliceThickness": 2.0,
        "SmallestImagePixelValue": 0,
        "SoftwareVersions": "syngo MR B17",
        "SpacingBetweenSlices": 1.9999999794435,
        "TransmitCoilName": "32Ch_Head_7T",
        "VariableFlipAngleFlag": "N",
        "WindowCenterWidthExplanation": "Algo1",
        "dBdt": 0.0
      },
      "slices": {}
    },
    "modality": "bold",
    "run_id": 2,
    "session_id": "10",
    "subject_id": "001",
    "task_id": "HalfFovNoTask",
    "time": {
      "samples": {
        "AcquisitionNumber": [
          1,
          2,
          3,
          4,
          5,
          6,
          7,
          8,
          9,
          10,
          11,
          12,
          13,
          14,
          15,
          16,
          17,
          18,
          19,
          20,
          21,
          22,
          23,
          24,
          25,
          26,
          27,
          28,
          29,
          30,
          31,
          32,
          33,
          34,
          35,
          36,
          37,
          38,
          39,
          40,
          41,
          42,
          43,
          44,
          45,
          46,
          47,
          48,
          49,
          50,
          51,
          52,
          53,
          54,
          55,
          56,
          57,
          58,
          59,
          60,
          61,
          62,
          63,
          64,
          65,
          66,
          67,
          68,
          69,
          70,
          71,
          72,
          73,
          74,
          75,
          76,
          77,
          78,
          79,
          80,
          81,
          82,
          83,
          84,
          85,
          86,
          87,
          88,
          89,
          90,
          91,
          92,
          93,
          94,
          95,
          96,
          97,
          98,
          99,
          100,
          101,
          102,
          103,
          104,
          105,
          106,
          107,
          108,
          109,
          110,
          111,
          112,
          113,
          114,
          115,
          116,
          117,
          118,
          119,
          120,
          121,
          122,
          123,
          124,
          125,
          126,
          127,
          128,
          129,
          130,
          131,
          132,
          133,
          134,
          135,
          136,
          137,
          138,
          139,
          140,
          141,
          142,
          143,
          144,
          145,
          146,
          147,
          148,
          149,
          150,
          151,
          152,
          153,
          154,
          155,
          156,
          157,
          158,
          159,
          160,
          161,
          162,
          163,
          164
        ],
        "AcquisitionTime": [
          "182252.505000",
          "182256.520000",
          "182258.527500",
          "182300.535000",
          "182302.545000",
          "182304.552500",
          "182306.560000",
          "182308.567500",
          "182310.577500",
          "182312.585000",
          "182314.592500",
          "182316.600000",
          "182318.607500",
          "182320.617500",
          "182322.625000",
          "182324.632500",
          "182326.640000",
          "182328.647500",
          "182330.657500",
          "182332.665000",
          "182334.672500",
          "182336.680000",
          "182338.690000",
          "182340.697500",
          "182342.705000",
          "182344.712500",
          "182346.720000",
          "182348.730000",
          "182350.737500",
          "182352.745000",
          "182354.752500",
          "182356.760000",
          "182358.770000",
          "182400.777500",
          "182402.785000",
          "182404.792500",
          "182406.802500",
          "182408.810000",
          "182410.817500",
          "182412.825000",
          "182414.832500",
          "182416.842500",
          "182418.850000",
          "182420.857500",
          "182422.865000",
          "182424.872500",
          "182426.882500",
          "182428.890000",
          "182430.897500",
          "182432.905000",
          "182434.912500",
          "182436.922500",
          "182438.930000",
          "182440.937500",
          "182442.945000",
          "182444.955000",
          "182446.962500",
          "182448.970000",
          "182450.977500",
          "182452.985000",
          "182454.995000",
          "182457.002500",
          "182459.010000",
          "182501.017500",
          "182503.025000",
          "182505.035000",
          "182507.042500",
          "182509.050000",
          "182511.057500",
          "182513.067500",
          "182515.075000",
          "182517.082500",
          "182519.090000",
          "182521.097500",
          "182523.107500",
          "182525.115000",
          "182527.122500",
          "182529.130000",
          "182531.137500",
          "182533.147500",
          "182535.155000",
          "182537.162500",
          "182539.170000",
          "182541.180000",
          "182543.187500",
          "182545.195000",
          "182547.202500",
          "182549.210000",
          "182551.220000",
          "182553.227500",
          "182555.235000",
          "182557.242500",
          "182559.250000",
          "182601.260000",
          "182603.267500",
          "182605.275000",
          "182607.282500",
          "182609.290000",
          "182611.300000",
          "182613.307500",
          "182615.315000",
          "182617.322500",
          "182619.332500",
          "182621.340000",
          "182623.347500",
          "182625.355000",
          "182627.362500",
          "182629.372500",
          "182631.380000",
          "182633.387500",
          "182635.395000",
          "182637.402500",
          "182639.412500",
          "182641.420000",
          "182643.427500",
          "182645.435000",
          "182647.445000",
          "182649.452500",
          "182651.460000",
          "182653.467500",
          "182655.475000",
          "182657.485000",
          "182659.492500",
          "182701.500000",
          "182703.507500",
          "182705.515000",
          "182707.525000",
          "182709.532500",
          "182711.540000",
          "182713.547500",
          "182715.557500",
          "182717.565000",
          "182719.572500",
          "182721.580000",
          "182723.587500",
          "182725.597500",
          "182727.605000",
          "182729.612500",
          "182731.620000",
          "182733.627500",
          "182735.637500",
          "182737.645000",
          "182739.652500",
          "182741.660000",
          "182743.667500",
          "182745.677500",
          "182747.685000",
          "182749.692500",
          "182751.700000",
          "182753.710000",
          "182755.717500",
          "182757.725000",
          "182759.732500",
          "182801.740000",
          "182803.750000",
          "182805.757500",
          "182807.765000",
          "182809.772500",
          "182811.780000",
          "182813.790000",
          "182815.797500",
          "182817.805000",
          "182819.812500",
          "182821.822500"
        ],
        "ContentTime": [
          "182340.135000",
          "182340.135000",
          "182340.135000",
          "182340.135000",
          "182340.135000",
          "182340.135000",
          "182340.151000",
          "182340.151000",
          "182340.151000",
          "182340.151000",
          "182340.151000",
          "182340.151000",
          "182340.151000",
          "182340.167000",
          "182340.167000",
          "182340.167000",
          "182340.167000",
          "182340.167000",
          "182340.167000",
          "182340.167000",
          "182340.182000",
          "182340.182000",
          "182420.120000",
          "182420.120000",
          "182420.120000",
          "182420.120000",
          "182420.135000",
          "182420.135000",
          "182420.135000",
          "182420.151000",
          "182420.151000",
          "182420.151000",
          "182420.151000",
          "182420.151000",
          "182420.167000",
          "182420.167000",
          "182420.167000",
          "182420.167000",
          "182420.167000",
          "182420.167000",
          "182420.167000",
          "182420.182000",
          "182500.120000",
          "182500.135000",
          "182500.135000",
          "182500.135000",
          "182500.151000",
          "182500.151000",
          "182500.151000",
          "182500.151000",
          "182500.151000",
          "182500.151000",
          "182500.167000",
          "182500.182000",
          "182500.182000",
          "182500.182000",
          "182500.182000",
          "182500.198000",
          "182500.198000",
          "182500.198000",
          "182500.198000",
          "182500.198000",
          "182540.120000",
          "182540.120000",
          "182540.135000",
          "182540.135000",
          "182540.135000",
          "182540.135000",
          "182540.135000",
          "182540.135000",
          "182540.151000",
          "182540.151000",
          "182540.151000",
          "182540.151000",
          "182540.151000",
          "182540.151000",
          "182540.151000",
          "182540.167000",
          "182540.167000",
          "182540.167000",
          "182540.167000",
          "182540.167000",
          "182620.120000",
          "182620.120000",
          "182620.135000",
          "182620.135000",
          "182620.135000",
          "182620.135000",
          "182620.151000",
          "182620.151000",
          "182620.151000",
          "182620.151000",
          "182620.151000",
          "182620.151000",
          "182620.167000",
          "182620.167000",
          "182620.167000",
          "182620.167000",
          "182620.167000",
          "182620.182000",
          "182620.182000",
          "182620.182000",
          "182700.120000",
          "182700.120000",
          "182700.120000",
          "182700.120000",
          "182700.135000",
          "182700.135000",
          "182700.135000",
          "182700.135000",
          "182700.135000",
          "182700.135000",
          "182700.151000",
          "182700.151000",
          "182700.151000",
          "182700.151000",
          "182700.151000",
          "182700.151000",
          "182700.151000",
          "182700.167000",
          "182700.167000",
          "182700.167000",
          "182740.120000",
          "182740.120000",
          "182740.120000",
          "182740.135000",
          "182740.135000",
          "182740.135000",
          "182740.135000",
          "182740.135000",
          "182740.151000",
          "182740.151000",
          "182740.151000",
          "182740.151000",
          "182740.151000",
          "182740.151000",
          "182740.167000",
          "182740.167000",
          "182740.167000",
          "182740.167000",
          "182740.167000",
          "182740.167000",
          "182820.120000",
          "182820.120000",
          "182820.120000",
          "182820.120000",
          "182820.135000",
          "182820.135000",
          "182820.135000",
          "182820.135000",
          "182820.135000",
          "182820.135000",
          "182820.151000",
          "182820.151000",
          "182820.151000",
          "182820.167000",
          "182820.167000",
          "182820.167000",
          "182820.167000",
          "182820.167000",
          "182820.167000",
          "182820.167000",
          "182822.776000",
          "182822.776000"
        ],
        "InstanceCreationTime": [
          "182340.135000",
          "182340.135000",
          "182340.135000",
          "182340.135000",
          "182340.135000",
          "182340.135000",
          "182340.151000",
          "182340.151000",
          "182340.151000",
          "182340.151000",
          "182340.151000",
          "182340.151000",
          "182340.151000",
          "182340.167000",
          "182340.167000",
          "182340.167000",
          "182340.167000",
          "182340.167000",
          "182340.167000",
          "182340.167000",
          "182340.182000",
          "182340.182000",
          "182420.120000",
          "182420.120000",
          "182420.120000",
          "182420.120000",
          "182420.135000",
          "182420.135000",
          "182420.135000",
          "182420.151000",
          "182420.151000",
          "182420.151000",
          "182420.151000",
          "182420.151000",
          "182420.167000",
          "182420.167000",
          "182420.167000",
          "182420.167000",
          "182420.167000",
          "182420.167000",
          "182420.167000",
          "182420.182000",
          "182500.120000",
          "182500.135000",
          "182500.135000",
          "182500.135000",
          "182500.151000",
          "182500.151000",
          "182500.151000",
          "182500.151000",
          "182500.151000",
          "182500.151000",
          "182500.167000",
          "182500.182000",
          "182500.182000",
          "182500.182000",
          "182500.182000",
          "182500.198000",
          "182500.198000",
          "182500.198000",
          "182500.198000",
          "182500.198000",
          "182540.120000",
          "182540.120000",
          "182540.135000",
          "182540.135000",
          "182540.135000",
          "182540.135000",
          "182540.135000",
          "182540.135000",
          "182540.151000",
          "182540.151000",
          "182540.151000",
          "182540.151000",
          "182540.151000",
          "182540.151000",
          "182540.151000",
          "182540.167000",
          "182540.167000",
          "182540.167000",
          "182540.167000",
          "182540.167000",
          "182620.120000",
          "182620.120000",
          "182620.135000",
          "182620.135000",
          "182620.135000",
          "182620.135000",
          "182620.151000",
          "182620.151000",
          "182620.151000",
          "182620.151000",
          "182620.151000",
          "182620.151000",
          "182620.167000",
          "182620.167000",
          "182620.167000",
          "182620.167000",
          "182620.167000",
          "182620.182000",
          "182620.182000",
          "182620.182000",
          "182700.120000",
          "182700.120000",
          "182700.120000",
          "182700.120000",
          "182700.135000",
          "182700.135000",
          "182700.135000",
          "182700.135000",
          "182700.135000",
          "182700.135000",
          "182700.151000",
          "182700.151000",
          "182700.151000",
          "182700.151000",
          "182700.151000",
          "182700.151000",
          "182700.151000",
          "182700.167000",
          "182700.167000",
          "182700.167000",
          "182740.120000",
          "182740.120000",
          "182740.120000",
          "182740.135000",
          "182740.135000",
          "182740.135000",
          "182740.135000",
          "182740.135000",
          "182740.151000",
          "182740.151000",
          "182740.151000",
          "182740.151000",
          "182740.151000",
          "182740.151000",
          "182740.167000",
          "182740.167000",
          "182740.167000",
          "182740.167000",
          "182740.167000",
          "182740.167000",
          "182820.120000",
          "182820.120000",
          "182820.120000",
          "182820.120000",
          "182820.135000",
          "182820.135000",
          "182820.135000",
          "182820.135000",
          "182820.135000",
          "182820.135000",
          "182820.151000",
          "182820.151000",
          "182820.151000",
          "182820.167000",
          "182820.167000",
          "182820.167000",
          "182820.167000",
          "182820.167000",
          "182820.167000",
          "182820.167000",
          "182822.776000",
          "182822.776000"
        ],
        "InstanceNumber": [
          1,
          2,
          3,
          4,
          5,
          6,
          7,
          8,
          9,
          10,
          11,
          12,
          13,
          14,
          15,
          16,
          17,
          18,
          19,
          20,
          21,
          22,
          23,
          24,
          25,
          26,
          27,
          28,
          29,
          30,
          31,
          32,
          33,
          34,
          35,
          36,
          37,
          38,
          39,
          40,
          41,
          42,
          43,
          44,
          45,
          46,
          47,
          48,
          49,
          50,
          51,
          52,
          53,
          54,
          55,
          56,
          57,
          58,
          59,
          60,
          61,
          62,
          63,
          64,
          65,
          66,
          67,
          68,
          69,
          70,
          71,
          72,
          73,
          74,
          75,
          76,
          77,
          78,
          79,
          80,
          81,
          82,
          83,
          84,
          85,
          86,
          87,
          88,
          89,
          90,
          91,
          92,
          93,
          94,
          95,
          96,
          97,
          98,
          99,
          100,
          101,
          102,
          103,
          104,
          105,
          106,
          107,
          108,
          109,
          110,
          111,
          112,
          113,
          114,
          115,
          116,
          117,
          118,
          119,
          120,
          121,
          122,
          123,
          124,
          125,
          126,
          127,
          128,
          129,
          130,
          131,
          132,
          133,
          134,
          135,
          136,
          137,
          138,
          139,
          140,
          141,
          142,
          143,
          144,
          145,
          146,
          147,
          148,
          149,
          150,
          151,
          152,
          153,
          154,
          155,
          156,
          157,
          158,
          159,
          160,
          161,
          162,
          163,
          164
        ],
        "WindowCenter": [
          1178.0,
          1178.0,
          1178.0,
          1178.0,
          1177.0,
          1178.0,
          1177.0,
          1175.0,
          1175.0,
          1174.0,
          1175.0,
          1176.0,
          1175.0,
          1176.0,
          1176.0,
          1176.0,
          1179.0,
          1178.0,
          1176.0,
          1177.0,
          1176.0,
          1175.0,
          1177.0,
          1175.0,
          1175.0,
          1175.0,
          1174.0,
          1174.0,
          1173.0,
          1174.0,
          1175.0,
          1175.0,
          1174.0,
          1176.0,
          1176.0,
          1176.0,
          1176.0,
          1175.0,
          1175.0,
          1175.0,
          1175.0,
          1177.0,
          1176.0,
          1176.0,
          1178.0,
          1177.0,
          1176.0,
          1175.0,
          1176.0,
          1175.0,
          1175.0,
          1175.0,
          1176.0,
          1176.0,
          1176.0,
          1177.0,
          1177.0,
          1174.0,
          1173.0,
          1171.0,
          1169.0,
          1169.0,
          1169.0,
          1168.0,
          1176.0,
          1177.0,
          1176.0,
          1176.0,
          1175.0,
          1177.0,
          1179.0,
          1181.0,
          1182.0,
          1180.0,
          1181.0,
          1181.0,
          1180.0,
          1180.0,
          1181.0,
          1179.0,
          1179.0,
          1176.0,
          1174.0,
          1175.0,
          1176.0,
          1176.0,
          1176.0,
          1176.0,
          1178.0,
          1179.0,
          1180.0,
          1180.0,
          1178.0,
          1180.0,
          1180.0,
          1180.0,
          1181.0,
          1181.0,
          1182.0,
          1182.0,
          1178.0,
          1176.0,
          1177.0,
          1176.0,
          1177.0,
          1178.0,
          1176.0,
          1175.0,
          1176.0,
          1176.0,
          1175.0,
          1177.0,
          1177.0,
          1176.0,
          1175.0,
          1176.0,
          1176.0,
          1178.0,
          1177.0,
          1178.0,
          1179.0,
          1178.0,
          1178.0,
          1179.0,
          1178.0,
          1178.0,
          1178.0,
          1179.0,
          1179.0,
          1178.0,
          1178.0,
          1180.0,
          1181.0,
          1182.0,
          1180.0,
          1182.0,
          1182.0,
          1179.0,
          1179.0,
          1179.0,
          1177.0,
          1178.0,
          1175.0,
          1174.0,
          1175.0,
          1175.0,
          1176.0,
          1176.0,
          1177.0,
          1177.0,
          1176.0,
          1178.0,
          1178.0,
          1177.0,
          1177.0,
          1178.0,
          1177.0,
          1177.0,
          1177.0,
          1177.0,
          1179.0,
          1179.0,
          1178.0,
          1178.0
        ],
        "WindowWidth": [
          2812.0,
          2816.0,
          2816.0,
          2814.0,
          2814.0,
          2812.0,
          2809.0,
          2807.0,
          2806.0,
          2806.0,
          2805.0,
          2810.0,
          2807.0,
          2804.0,
          2807.0,
          2809.0,
          2815.0,
          2814.0,
          2812.0,
          2811.0,
          2809.0,
          2807.0,
          2811.0,
          2809.0,
          2807.0,
          2808.0,
          2806.0,
          2803.0,
          2801.0,
          2802.0,
          2804.0,
          2804.0,
          2804.0,
          2810.0,
          2808.0,
          2808.0,
          2808.0,
          2804.0,
          2804.0,
          2806.0,
          2808.0,
          2810.0,
          2810.0,
          2812.0,
          2816.0,
          2812.0,
          2808.0,
          2809.0,
          2807.0,
          2805.0,
          2807.0,
          2806.0,
          2807.0,
          2808.0,
          2808.0,
          2819.0,
          2811.0,
          2804.0,
          2799.0,
          2796.0,
          2787.0,
          2790.0,
          2791.0,
          2793.0,
          2812.0,
          2814.0,
          2807.0,
          2808.0,
          2808.0,
          2812.0,
          2818.0,
          2824.0,
          2825.0,
          2822.0,
          2822.0,
          2822.0,
          2820.0,
          2821.0,
          2824.0,
          2818.0,
          2814.0,
          2810.0,
