{
  "aor": 0.0019015853658536587,
  "aqi": 0.00824857975609756,
  "bids_meta": {
    "AcquisitionMatrixPE": 96,
    "AcquisitionNumber": 1,
    "AcquisitionTime": "17:33:10.357500",
    "BandwidthPerPixelPhaseEncode": 52.083,
    "BaseResolution": 96,
    "BodyPartExamined": "HEAD",
    "ConversionSoftware": "dcm2niix",
    "ConversionSoftwareVersion": "v1.0.20180622 GCC6.3.0",
    "DerivedVendorReportedEchoSpacing": 0.000600004,
    "DeviceSerialNumber": "18926",
    "DwellTime": 2.6e-06,
    "EchoTime": 0.025,
    "EffectiveEchoSpacing": 0.000200001,
    "FlipAngle": 50,
    "ImageOrientationPatientDICOM": [
      1,
      -2.05103e-10,
      0,
      2.05103e-10,
      1,
      0
    ],
    "ImageType": [
      "ORIGINAL",
      "PRIMARY",
      "M",
      "ND",
      "ECHO",
      "00",
      "MOSAIC"
    ],
    "InPlanePhaseEncodingDirectionDICOM": "ROW",
    "InstitutionName": "NIMH",
    "InstitutionalDepartmentName": "Department",
    "MRAcquisitionType": "2D",
    "MagneticFieldStrength": 6.98,
    "Manufacturer": "Siemens",
    "ManufacturersModelName": "Investigational_Device_7T",
    "Modality": "MR",
    "ParallelReductionFactorInPlane": 3,
    "PartialFourier": 1,
    "PatientPosition": "HFS",
    "PercentPhaseFOV": 100,
    "PhaseEncodingDirection": "i",
    "PhaseEncodingSteps": 94,
    "PhaseResolution": 1,
    "PixelBandwidth": 2003,
    "ProcedureStepDescription": "MRI_Procedure_Limited",
    "ProtocolName": "NIH_EPI1.5_2.0iso_TR2_Run02",
    "PulseSequenceDetails": "%CustomerSeq%_inati_nih_epi_1_5",
    "ReceiveCoilName": "32Ch_Head_7T",
    "ReconMatrixPE": 96,
    "RepetitionTime": 2,
    "SAR": 0.0847833,
    "ScanningSequence": "EP",
    "SequenceName": "epfid2d1_96",
    "SequenceVariant": "SK",
    "SeriesDescription": "NIH_EPI1.5_2.0iso_TR2_Run02",
    "SeriesNumber": 6,
    "ShimSetting": [
      -139,
      131,
      1236,
      2353,
      -246,
      520,
      291,
      -272
    ],
    "SliceThickness": 2,
    "SliceTiming": [
      1.0025,
      0,
      1.04,
      0.0375,
      1.0775,
      0.0725,
      1.115,
      0.11,
      1.1525,
      0.1475,
      1.19,
      0.185,
      1.2275,
      0.2225,
      1.2625,
      0.26,
      1.3,
      0.2975,
      1.3375,
      0.335,
      1.375,
      0.37,
      1.4125,
      0.4075,
      1.45,
      0.445,
      1.4875,
      0.4825,
      1.5225,
      0.52,
      1.56,
      0.5575,
      1.5975,
      0.595,
      1.635,
      0.6325,
      1.6725,
      0.6675,
      1.71,
      0.705,
      1.7475,
      0.7425,
      1.785,
      0.78,
      1.82,
      0.8175,
      1.8575,
      0.855,
      1.895,
      0.8925,
      1.9325,
      0.93,
      1.97,
      0.965
    ],
    "SoftwareVersions": "syngo_MR_B17",
    "SpacingBetweenSlices": 2,
    "StationName": "FMRIFD7T",
    "TaskName": "FullFovAttentionTask",
    "TotalReadoutTime": 0.0190001,
    "TxRefAmp": 276,
    "dataset": "ds001555",
    "dcmmeta_affine": [
      [
        -2.0,
        4.1020681296188855e-10,
        0.0,
        96.0
      ],
      [
        4.1020681296188855e-10,
        2.0,
        0.0,
        -68.3614501953125
      ],
      [
        0.0,
        0.0,
        2.0,
        -32.0843391418457
      ],
      [
        0.0,
        0.0,
        0.0,
        1.0
      ]
    ],
    "dcmmeta_reorient_transform": [
      [
        0.0,
        -1.0,
        0.0,
        95.0
      ],
      [
        1.0,
        0.0,
        0.0,
        0.0
      ],
      [
        0.0,
        0.0,
        1.0,
        0.0
      ],
      [
        0.0,
        0.0,
        0.0,
        1.0
      ]
    ],
    "dcmmeta_shape": [
      96,
      96,
      54,
      164
    ],
    "dcmmeta_slice_dim": 2,
    "dcmmeta_version": 0.6,
    "global": {
      "const": {
        "AcquisitionMatrix": [
          0,
          96,
          96,
          0
        ],
        "Allergies": "No Known Allergies",
        "AngioFlag": "N",
        "BitsAllocated": 16,
        "BitsStored": 12,
        "BodyPartExamined": "HEAD",
        "Columns": 768,
        "EchoNumbers": 1,
        "EchoTime": 25.0,
        "EchoTrainLength": 1,
        "FlipAngle": 50.0,
        "HighBit": 11,
        "ImageOrientationPatient": [
          1.0,
          -2.051034e-10,
          0.0,
          2.051034e-10,
          1.0,
          0.0
        ],
        "ImagePositionPatient": [
          -768.00000015752,
          -793.63855346187,
          -32.084339141846
        ],
        "ImageType": [
          "ORIGINAL",
          "PRIMARY",
          "M",
          "ND",
          "ECHO_00",
          "MOSAIC"
        ],
        "ImagedNucleus": "1H",
        "ImagingFrequency": 297.204842,
        "InPlanePhaseEncodingDirection": "ROW",
        "MRAcquisitionType": "2D",
        "MagneticFieldStrength": 6.98,
        "Manufacturer": "SIEMENS",
        "ManufacturerModelName": "Investigational_Device_7T",
        "Modality": "MR",
        "NumberOfAverages": 1.0,
        "NumberOfPhaseEncodingSteps": 94,
        "PercentPhaseFieldOfView": 100.0,
        "PercentSampling": 100.0,
        "PerformedProcedureStepStartTime": "165915.421000",
        "PhotometricInterpretation": "MONOCHROME2",
        "PixelBandwidth": 2003.0,
        "PixelRepresentation": 0,
        "PixelSpacing": [
          2.0,
          2.0
        ],
        "PositionReferenceIndicator": "",
        "ProcedureCodeSequence": [
          {
            "CodeMeaning": "MRI Procedure Limited",
            "CodeValue": "MI01491",
            "CodingSchemeDesignator": "USA Standard",
            "ContextIdentifier": "4000140010"
          }
        ],
        "ProtocolName": "NIH_EPI1.5_2.0iso_TR2_Run02",
        "ReferencedStudySequence": [
          {
            "ReferencedSOPClassUID": "1.2.840.10008.3.1.2.3.1",
            "ReferencedSOPInstanceUID": "1.2.840.113564.9.1.2787814059.53.2.5000105881"
          }
        ],
        "RepetitionTime": 2000.0,
        "RequestedProcedureCodeSequence": [
          {
            "CodeMeaning": "MRI Procedure Limited",
            "CodeValue": "MI01491",
            "CodingSchemeDesignator": "USA Standard",
            "ContextIdentifier": "4000140010"
          }
        ],
        "RequestingService": "NIMH Molecular Imaging Branch",
        "Rows": 768,
        "SAR": 0.08478332352825,
        "SamplesPerPixel": 1,
        "ScanningSequence": "EP",
        "SequenceName": "epfid2d1_96",
        "SequenceVariant": "SK",
        "SeriesDescription": "NIH_EPI1.5_2.0iso_TR2_Run02",
        "SeriesNumber": 6,
        "SliceLocation": -32.084339141846,
        "SliceThickness": 2.0,
        "SmallestImagePixelValue": 0,
        "SoftwareVersions": "syngo MR B17",
        "SpacingBetweenSlices": 2.0000000719754,
        "TransmitCoilName": "32Ch_Head_7T",
        "VariableFlipAngleFlag": "N",
        "WindowCenterWidthExplanation": "Algo1",
        "dBdt": 0.0
      },
      "slices": {}
    },
    "modality": "bold",
    "run_id": 3,
    "session_id": "11",
    "subject_id": "003",
    "task_id": "FullFovAttentionTask",
    "time": {
      "samples": {
        "AcquisitionNumber": [
          1,
          2,
          3,
          4,
          5,
          6,
          7,
          8,
          9,
          10,
          11,
          12,
          13,
          14,
          15,
          16,
          17,
          18,
          19,
          20,
          21,
          22,
          23,
          24,
          25,
          26,
          27,
          28,
          29,
          30,
          31,
          32,
          33,
          34,
          35,
          36,
          37,
          38,
          39,
          40,
          41,
          42,
          43,
          44,
          45,
          46,
          47,
          48,
          49,
          50,
          51,
          52,
          53,
          54,
          55,
          56,
          57,
          58,
          59,
          60,
          61,
          62,
          63,
          64,
          65,
          66,
          67,
          68,
          69,
          70,
          71,
          72,
          73,
          74,
          75,
          76,
          77,
          78,
          79,
          80,
          81,
          82,
          83,
          84,
          85,
          86,
          87,
          88,
          89,
          90,
          91,
          92,
          93,
          94,
          95,
          96,
          97,
          98,
          99,
          100,
          101,
          102,
          103,
          104,
          105,
          106,
          107,
          108,
          109,
          110,
          111,
          112,
          113,
          114,
          115,
          116,
          117,
          118,
          119,
          120,
          121,
          122,
          123,
          124,
          125,
          126,
          127,
          128,
          129,
          130,
          131,
          132,
          133,
          134,
          135,
          136,
          137,
          138,
          139,
          140,
          141,
          142,
          143,
          144,
          145,
          146,
          147,
          148,
          149,
          150,
          151,
          152,
          153,
          154,
          155,
          156,
          157,
          158,
          159,
          160,
          161,
          162,
          163,
          164
        ],
        "AcquisitionTime": [
          "173310.357500",
          "173314.375000",
          "173316.382500",
          "173318.390000",
          "173320.397500",
          "173322.407500",
          "173324.415000",
          "173326.422500",
          "173328.430000",
          "173330.437500",
          "173332.447500",
          "173334.455000",
          "173336.462500",
          "173338.470000",
          "173340.477500",
          "173342.487500",
          "173344.495000",
          "173346.502500",
          "173348.510000",
          "173350.520000",
          "173352.527500",
          "173354.535000",
          "173356.542500",
          "173358.550000",
          "173400.560000",
          "173402.567500",
          "173404.575000",
          "173406.582500",
          "173408.590000",
          "173410.600000",
          "173412.607500",
          "173414.615000",
          "173416.622500",
          "173418.632500",
          "173420.640000",
          "173422.647500",
          "173424.655000",
          "173426.662500",
          "173428.672500",
          "173430.680000",
          "173432.687500",
          "173434.695000",
          "173436.702500",
          "173438.712500",
          "173440.720000",
          "173442.727500",
          "173444.735000",
          "173446.742500",
          "173448.752500",
          "173450.760000",
          "173452.767500",
          "173454.775000",
          "173456.785000",
          "173458.792500",
          "173500.800000",
          "173502.807500",
          "173504.815000",
          "173506.825000",
          "173508.832500",
          "173510.840000",
          "173512.847500",
          "173514.855000",
          "173516.865000",
          "173518.872500",
          "173520.880000",
          "173522.887500",
          "173524.897500",
          "173526.905000",
          "173528.912500",
          "173530.920000",
          "173532.927500",
          "173534.937500",
          "173536.945000",
          "173538.952500",
          "173540.960000",
          "173542.967500",
          "173544.977500",
          "173546.985000",
          "173548.992500",
          "173551.000000",
          "173553.010000",
          "173555.017500",
          "173557.025000",
          "173559.032500",
          "173601.040000",
          "173603.050000",
          "173605.057500",
          "173607.065000",
          "173609.072500",
          "173611.080000",
          "173613.090000",
          "173615.097500",
          "173617.105000",
          "173619.112500",
          "173621.122500",
          "173623.130000",
          "173625.137500",
          "173627.145000",
          "173629.152500",
          "173631.162500",
          "173633.170000",
          "173635.177500",
          "173637.185000",
          "173639.192500",
          "173641.202500",
          "173643.210000",
          "173645.217500",
          "173647.225000",
          "173649.232500",
          "173651.242500",
          "173653.250000",
          "173655.257500",
          "173657.265000",
          "173659.275000",
          "173701.282500",
          "173703.290000",
          "173705.297500",
          "173707.305000",
          "173709.315000",
          "173711.322500",
          "173713.330000",
          "173715.337500",
          "173717.345000",
          "173719.355000",
          "173721.362500",
          "173723.370000",
          "173725.377500",
          "173727.387500",
          "173729.395000",
          "173731.402500",
          "173733.410000",
          "173735.417500",
          "173737.427500",
          "173739.435000",
          "173741.442500",
          "173743.450000",
          "173745.457500",
          "173747.467500",
          "173749.475000",
          "173751.482500",
          "173753.490000",
          "173755.500000",
          "173757.507500",
          "173759.515000",
          "173801.522500",
          "173803.530000",
          "173805.540000",
          "173807.547500",
          "173809.555000",
          "173811.562500",
          "173813.570000",
          "173815.580000",
          "173817.587500",
          "173819.595000",
          "173821.602500",
          "173823.610000",
          "173825.620000",
          "173827.627500",
          "173829.635000",
          "173831.642500",
          "173833.652500",
          "173835.660000",
          "173837.667500",
          "173839.675000"
        ],
        "ContentTime": [
          "173356.296000",
          "173356.312000",
          "173356.312000",
          "173356.312000",
          "173356.312000",
          "173356.328000",
          "173356.328000",
          "173356.328000",
          "173356.328000",
          "173356.343000",
          "173356.343000",
          "173356.343000",
          "173356.343000",
          "173356.343000",
          "173356.343000",
          "173356.359000",
          "173356.359000",
          "173356.359000",
          "173356.359000",
          "173356.359000",
          "173356.359000",
          "173436.296000",
          "173436.296000",
          "173436.296000",
          "173436.296000",
          "173436.296000",
          "173436.312000",
          "173436.312000",
          "173436.312000",
          "173436.312000",
          "173436.328000",
          "173436.328000",
          "173436.328000",
          "173436.328000",
          "173436.328000",
          "173436.328000",
          "173436.328000",
          "173436.343000",
          "173436.343000",
          "173436.343000",
          "173436.343000",
          "173456.296000",
          "173456.296000",
          "173456.296000",
          "173456.296000",
          "173456.312000",
          "173456.312000",
          "173456.312000",
          "173456.312000",
          "173456.312000",
          "173456.312000",
          "173536.296000",
          "173536.296000",
          "173536.296000",
          "173536.296000",
          "173536.312000",
          "173536.312000",
          "173536.328000",
          "173536.328000",
          "173536.328000",
          "173536.328000",
          "173536.328000",
          "173536.343000",
          "173536.343000",
          "173536.343000",
          "173536.343000",
          "173536.343000",
          "173536.343000",
          "173536.343000",
          "173536.359000",
          "173536.359000",
          "173616.296000",
          "173616.296000",
          "173616.296000",
          "173616.296000",
          "173616.312000",
          "173616.312000",
          "173616.312000",
          "173616.312000",
          "173616.312000",
          "173616.312000",
          "173616.312000",
          "173616.328000",
          "173616.328000",
          "173616.328000",
          "173616.328000",
          "173616.328000",
          "173616.343000",
          "173616.343000",
          "173616.343000",
          "173616.343000",
          "173656.296000",
          "173656.296000",
          "173656.296000",
          "173656.296000",
          "173656.312000",
          "173656.312000",
          "173656.312000",
          "173656.312000",
          "173656.312000",
          "173656.312000",
          "173656.312000",
          "173656.328000",
          "173656.328000",
          "173656.328000",
          "173656.328000",
          "173656.328000",
          "173656.328000",
          "173656.343000",
          "173656.343000",
          "173656.343000",
          "173736.296000",
          "173736.296000",
          "173736.296000",
          "173736.296000",
          "173736.296000",
          "173736.312000",
          "173736.312000",
          "173736.312000",
          "173736.312000",
          "173736.328000",
          "173736.328000",
          "173736.328000",
          "173736.328000",
          "173736.328000",
          "173736.328000",
          "173736.343000",
          "173736.343000",
          "173736.343000",
          "173736.343000",
          "173736.343000",
          "173816.296000",
          "173816.296000",
          "173816.296000",
          "173816.296000",
          "173816.296000",
          "173816.312000",
          "173816.312000",
          "173816.312000",
          "173816.312000",
          "173816.312000",
          "173816.312000",
          "173816.328000",
          "173816.328000",
          "173816.328000",
          "173816.328000",
          "173816.328000",
          "173816.328000",
          "173816.328000",
          "173816.343000",
          "173816.343000",
          "173840.843000",
          "173840.843000",
          "173840.843000",
          "173840.859000",
          "173840.859000",
          "173840.875000",
          "173840.875000",
          "173840.875000",
          "173840.890000",
          "173840.890000",
          "173840.890000",
          "173840.890000",
          "173840.890000"
        ],
        "InstanceCreationTime": [
          "173356.296000",
          "173356.312000",
          "173356.312000",
          "173356.312000",
          "173356.312000",
          "173356.328000",
          "173356.328000",
          "173356.328000",
          "173356.328000",
          "173356.343000",
          "173356.343000",
          "173356.343000",
          "173356.343000",
          "173356.343000",
          "173356.343000",
          "173356.359000",
          "173356.359000",
          "173356.359000",
          "173356.359000",
          "173356.359000",
          "173356.359000",
          "173436.296000",
          "173436.296000",
          "173436.296000",
          "173436.296000",
          "173436.296000",
          "173436.312000",
          "173436.312000",
          "173436.312000",
          "173436.312000",
          "173436.328000",
          "173436.328000",
          "173436.328000",
          "173436.328000",
          "173436.328000",
          "173436.328000",
          "173436.328000",
          "173436.343000",
          "173436.343000",
          "173436.343000",
          "173436.343000",
          "173456.296000",
          "173456.296000",
          "173456.296000",
          "173456.296000",
          "173456.312000",
          "173456.312000",
          "173456.312000",
          "173456.312000",
          "173456.312000",
          "173456.312000",
          "173536.296000",
          "173536.296000",
          "173536.296000",
          "173536.296000",
          "173536.312000",
          "173536.312000",
          "173536.328000",
          "173536.328000",
          "173536.328000",
          "173536.328000",
          "173536.328000",
          "173536.343000",
          "173536.343000",
          "173536.343000",
          "173536.343000",
          "173536.343000",
          "173536.343000",
          "173536.343000",
          "173536.359000",
          "173536.359000",
          "173616.296000",
          "173616.296000",
          "173616.296000",
          "173616.296000",
          "173616.312000",
          "173616.312000",
          "173616.312000",
          "173616.312000",
          "173616.312000",
          "173616.312000",
          "173616.312000",
          "173616.328000",
          "173616.328000",
          "173616.328000",
          "173616.328000",
          "173616.328000",
          "173616.343000",
          "173616.343000",
          "173616.343000",
          "173616.343000",
          "173656.296000",
          "173656.296000",
          "173656.296000",
          "173656.296000",
          "173656.312000",
          "173656.312000",
          "173656.312000",
          "173656.312000",
          "173656.312000",
          "173656.312000",
          "173656.312000",
          "173656.328000",
          "173656.328000",
          "173656.328000",
          "173656.328000",
          "173656.328000",
          "173656.328000",
          "173656.343000",
          "173656.343000",
          "173656.343000",
          "173736.296000",
          "173736.296000",
          "173736.296000",
          "173736.296000",
          "173736.296000",
          "173736.312000",
          "173736.312000",
          "173736.312000",
          "173736.312000",
          "173736.328000",
          "173736.328000",
          "173736.328000",
          "173736.328000",
          "173736.328000",
          "173736.328000",
          "173736.343000",
          "173736.343000",
          "173736.343000",
          "173736.343000",
          "173736.343000",
          "173816.296000",
          "173816.296000",
          "173816.296000",
          "173816.296000",
          "173816.296000",
          "173816.312000",
          "173816.312000",
          "173816.312000",
          "173816.312000",
          "173816.312000",
          "173816.312000",
          "173816.328000",
          "173816.328000",
          "173816.328000",
          "173816.328000",
          "173816.328000",
          "173816.328000",
          "173816.328000",
          "173816.343000",
          "173816.343000",
          "173840.843000",
          "173840.843000",
          "173840.843000",
          "173840.859000",
          "173840.859000",
          "173840.875000",
          "173840.875000",
          "173840.875000",
          "173840.890000",
          "173840.890000",
          "173840.890000",
          "173840.890000",
          "173840.890000"
        ],
        "InstanceNumber": [
          1,
          2,
          3,
          4,
          5,
          6,
          7,
          8,
          9,
          10,
          11,
          12,
          13,
          14,
          15,
          16,
          17,
          18,
          19,
          20,
          21,
          22,
          23,
          24,
          25,
          26,
          27,
          28,
          29,
          30,
          31,
          32,
          33,
          34,
          35,
          36,
          37,
          38,
          39,
          40,
          41,
          42,
          43,
          44,
          45,
          46,
          47,
          48,
          49,
          50,
          51,
          52,
          53,
          54,
          55,
          56,
          57,
          58,
          59,
          60,
          61,
          62,
          63,
          64,
          65,
          66,
          67,
          68,
          69,
          70,
          71,
          72,
          73,
          74,
          75,
          76,
          77,
          78,
          79,
          80,
          81,
          82,
          83,
          84,
          85,
          86,
          87,
          88,
          89,
          90,
          91,
          92,
          93,
          94,
          95,
          96,
          97,
          98,
          99,
          100,
          101,
          102,
          103,
          104,
          105,
          106,
          107,
          108,
          109,
          110,
          111,
          112,
          113,
          114,
          115,
          116,
          117,
          118,
          119,
          120,
          121,
          122,
          123,
          124,
          125,
          126,
          127,
          128,
          129,
          130,
          131,
          132,
          133,
          134,
          135,
          136,
          137,
          138,
          139,
          140,
          141,
          142,
          143,
          144,
          145,
          146,
          147,
          148,
          149,
          150,
          151,
          152,
          153,
          154,
          155,
          156,
          157,
          158,
          159,
          160,
          161,
          162,
          163,
          164
        ],
        "LargestImagePixelValue": [
          3035,
          3028,
          3017,
          3031,
          3018,
          3019,
          2995,
          3030,
          3044,
          3128,
          3115,
          3125,
          3102,
          3053,
          3114,
          3102,
          3095,
          3079,
          3062,
          3076,
          3060,
          3082,
          3131,
          3131,
          3121,
          3189,
          3136,
          3145,
          3150,
          3139,
          3123,
          3127,
          3149,
          3108,
          3113,
          3170,
          3138,
          3087,
          3173,
          3147,
          3108,
          3135,
          3157,
          3140,
          3176,
          3164,
          3128,
          3150,
          3146,
          3132,
          3197,
          3202,
          3146,
          3169,
          3158,
          3148,
          3205,
          3207,
          3194,
          3236,
          3228,
          3243,
          3187,
          3238,
          3241,
          3206,
          3225,
          3214,
          3240,
          3259,
          3234,
          3207,
          3236,
          3231,
          3212,
          3251,
          3222,
          3215,
          3247,
          3231,
          3218,
          3233,
          3274,
          3241,
          3242,
          3288,
          3275,
          3235,
          3280,
          3243,
          3270,
          3289,
          3282,
          3274,
          3261,
          3253,
          3225,
          3228,
          3168,
          3126,
          3149,
          3173,
          3155,
          3171,
          3171,
          3190,
          3195,
          3175,
          3215,
          3253,
          3215,
          3237,
          3272,
          3243,
          3275,
          3248,
          3234,
          3263,
          3256,
          3250,
          3285,
          3268,
          3238,
          3275,
          3233,
          3242,
          3243,
          3235,
          3261,
          3269,
          3277,
          3294,
          3292,
          3292,
          3287,
          3305,
          3263,
          3261,
          3284,
          3289,
          3254,
          3266,
          3260,
          3256,
          3278,
          3225,
          3249,
          3248,
          3229,
          3218,
          3245,
          3265,
          3254,
          3282,
          3250,
          3250,
          3278,
          3250,
          3241,
          3258,
          3218,
          3246,
          3248,
          3249
        ],
        "WindowCenter": [
          731.0,
          730.0,
          730.0,
          730.0,
          731.0,
          730.0,
          730.0,
          732.0,
          731.0,
          730.0,
          731.0,
          731.0,
          732.0,
          731.0,
          731.0,
          731.0,
          732.0,
          733.0,
          732.0,
          732.0,
          732.0,
          732.0,
          731.0,
          731.0,
          730.0,
          730.0,
          730.0,
          730.0,
          731.0,
          731.0,
          730.0,
          730.0,
          730.0,
          730.0,
          730.0,
          730.0,
          730.0,
          731.0,
          731.0,
          731.0,
          731.0,
          731.0,
          731.0,
          730.0,
          730.0,
          730.0,
          730.0,
          731.0,
          730.0,
          729.0,
          730.0,
          730.0,
          731.0,
          732.0,
          731.0,
          730.0,
          730.0,
          730.0,
          730.0,
          730.0,
          731.0,
          731.0,
          731.0,
          730.0,
          731.0,
          730.0,
          731.0,
          731.0,
          731.0,
          730.0,
          731.0,
          732.0,
          732.0,
          731.0,
          731.0,
          732.0,
          732.0,
          732.0,
          731.0,
          731.0,
          731.0,
          731.0,
          730.0,
          731.0,
          731.0,
          730.0,
          729.0,
          729.0,
          729.0,
          730.0,
          731.0,
          730.0,
          730.0,
          730.0,
          730.0,
          731.0,
          731.0,
          731.0,
          731.0,
          732.0,
          733.0,
          731.0,
          730.0,
          731.0,
          731.0,
          732.0,
          731.0,
          731.0,
          731.0,
          732.0,
          731.0,
          730.0,
          731.0,
          730.0,
          730.0,
          730.0,
          730.0,
          731.0,
