{
  "aor": 0.0011424390243902438,
  "aqi": 0.008435534451219513,
  "bids_meta": {
    "AcquisitionMatrixPE": 96,
    "AcquisitionNumber": 1,
    "AcquisitionTime": "18:44:1.835000",
    "BandwidthPerPixelPhaseEncode": 52.083,
    "BaseResolution": 96,
    "BodyPartExamined": "HEAD",
    "ConversionSoftware": "dcm2niix",
    "ConversionSoftwareVersion": "v1.0.20180622 GCC6.3.0",
    "DerivedVendorReportedEchoSpacing": 0.000600004,
    "DeviceSerialNumber": "18926",
    "DwellTime": 2.6e-06,
    "EchoTime": 0.025,
    "EffectiveEchoSpacing": 0.000200001,
    "FlipAngle": 50,
    "ImageOrientationPatientDICOM": [
      1,
      -2.05103e-10,
      0,
      2.05103e-10,
      1,
      0
    ],
    "ImageType": [
      "ORIGINAL",
      "PRIMARY",
      "M",
      "ND",
      "ECHO",
      "00",
      "MOSAIC"
    ],
    "InPlanePhaseEncodingDirectionDICOM": "ROW",
    "InstitutionName": "NIMH",
    "InstitutionalDepartmentName": "Department",
    "MRAcquisitionType": "2D",
    "MagneticFieldStrength": 6.98,
    "Manufacturer": "Siemens",
    "ManufacturersModelName": "Investigational_Device_7T",
    "Modality": "MR",
    "ParallelReductionFactorInPlane": 3,
    "PartialFourier": 1,
    "PatientPosition": "HFS",
    "PercentPhaseFOV": 100,
    "PhaseEncodingDirection": "i",
    "PhaseEncodingSteps": 94,
    "PhaseResolution": 1,
    "PixelBandwidth": 2003,
    "ProcedureStepDescription": "MRI_Procedure_Limited",
    "ProtocolName": "NIH_EPI1.5_2.0iso_TR2_Run12",
    "PulseSequenceDetails": "%CustomerSeq%_inati_nih_epi_1_5",
    "ReceiveCoilName": "32Ch_Head_7T",
    "ReconMatrixPE": 96,
    "RepetitionTime": 2,
    "SAR": 0.0847833,
    "ScanningSequence": "EP",
    "SequenceName": "epfid2d1_96",
    "SequenceVariant": "SK",
    "SeriesDescription": "NIH_EPI1.5_2.0iso_TR2_Run12",
    "SeriesNumber": 16,
    "ShimSetting": [
      -139,
      131,
      1236,
      2353,
      -246,
      520,
      291,
      -272
    ],
    "SliceThickness": 2,
    "SliceTiming": [
      1.005,
      0,
      1.0425,
      0.0375,
      1.0775,
      0.075,
      1.115,
      0.1125,
      1.1525,
      0.15,
      1.19,
      0.1875,
      1.2275,
      0.2225,
      1.265,
      0.26,
      1.3025,
      0.2975,
      1.34,
      0.335,
      1.375,
      0.3725,
      1.4125,
      0.41,
      1.45,
      0.4475,
      1.4875,
      0.485,
      1.525,
      0.52,
      1.5625,
      0.5575,
      1.6,
      0.595,
      1.6375,
      0.6325,
      1.6725,
      0.67,
      1.71,
      0.7075,
      1.7475,
      0.745,
      1.785,
      0.7825,
      1.8225,
      0.8175,
      1.86,
      0.855,
      1.8975,
      0.8925,
      1.935,
      0.93,
      1.97,
      0.9675
    ],
    "SoftwareVersions": "syngo_MR_B17",
    "SpacingBetweenSlices": 2,
    "StationName": "FMRIFD7T",
    "TaskName": "FullFovAttentionTask",
    "TotalReadoutTime": 0.0190001,
    "TxRefAmp": 276,
    "dataset": "ds001555",
    "dcmmeta_affine": [
      [
        -2.0,
        4.1020681296188855e-10,
        0.0,
        96.0
      ],
      [
        4.1020681296188855e-10,
        2.0,
        0.0,
        -68.3614501953125
      ],
      [
        0.0,
        0.0,
        2.0,
        -32.0843391418457
      ],
      [
        0.0,
        0.0,
        0.0,
        1.0
      ]
    ],
    "dcmmeta_reorient_transform": [
      [
        0.0,
        -1.0,
        0.0,
        95.0
      ],
      [
        1.0,
        0.0,
        0.0,
        0.0
      ],
      [
        0.0,
        0.0,
        1.0,
        0.0
      ],
      [
        0.0,
        0.0,
        0.0,
        1.0
      ]
    ],
    "dcmmeta_shape": [
      96,
      96,
      54,
      164
    ],
    "dcmmeta_slice_dim": 2,
    "dcmmeta_version": 0.6,
    "global": {
      "const": {
        "AcquisitionMatrix": [
          0,
          96,
          96,
          0
        ],
        "Allergies": "No Known Allergies",
        "AngioFlag": "N",
        "BitsAllocated": 16,
        "BitsStored": 12,
        "BodyPartExamined": "HEAD",
        "Columns": 768,
        "EchoNumbers": 1,
        "EchoTime": 25.0,
        "EchoTrainLength": 1,
        "FlipAngle": 50.0,
        "HighBit": 11,
        "ImageOrientationPatient": [
          1.0,
          -2.051034e-10,
          0.0,
          2.051034e-10,
          1.0,
          0.0
        ],
        "ImagePositionPatient": [
          -768.00000015752,
          -793.63855346187,
          -32.084339141846
        ],
        "ImageType": [
          "ORIGINAL",
          "PRIMARY",
          "M",
          "ND",
          "ECHO_00",
          "MOSAIC"
        ],
        "ImagedNucleus": "1H",
        "ImagingFrequency": 297.205014,
        "InPlanePhaseEncodingDirection": "ROW",
        "MRAcquisitionType": "2D",
        "MagneticFieldStrength": 6.98,
        "Manufacturer": "SIEMENS",
        "ManufacturerModelName": "Investigational_Device_7T",
        "Modality": "MR",
        "NumberOfAverages": 1.0,
        "NumberOfPhaseEncodingSteps": 94,
        "PercentPhaseFieldOfView": 100.0,
        "PercentSampling": 100.0,
        "PerformedProcedureStepStartTime": "165915.421000",
        "PhotometricInterpretation": "MONOCHROME2",
        "PixelBandwidth": 2003.0,
        "PixelRepresentation": 0,
        "PixelSpacing": [
          2.0,
          2.0
        ],
        "PositionReferenceIndicator": "",
        "ProcedureCodeSequence": [
          {
            "CodeMeaning": "MRI Procedure Limited",
            "CodeValue": "MI01491",
            "CodingSchemeDesignator": "USA Standard",
            "ContextIdentifier": "4000140010"
          }
        ],
        "ProtocolName": "NIH_EPI1.5_2.0iso_TR2_Run12",
        "ReferencedStudySequence": [
          {
            "ReferencedSOPClassUID": "1.2.840.10008.3.1.2.3.1",
            "ReferencedSOPInstanceUID": "1.2.840.113564.9.1.2787814059.53.2.5000105881"
          }
        ],
        "RepetitionTime": 2000.0,
        "RequestedProcedureCodeSequence": [
          {
            "CodeMeaning": "MRI Procedure Limited",
            "CodeValue": "MI01491",
            "CodingSchemeDesignator": "USA Standard",
            "ContextIdentifier": "4000140010"
          }
        ],
        "RequestingService": "NIMH Molecular Imaging Branch",
        "Rows": 768,
        "SAR": 0.08478332352825,
        "SamplesPerPixel": 1,
        "ScanningSequence": "EP",
        "SequenceName": "epfid2d1_96",
        "SequenceVariant": "SK",
        "SeriesDescription": "NIH_EPI1.5_2.0iso_TR2_Run12",
        "SeriesNumber": 16,
        "SliceLocation": -32.084339141846,
        "SliceThickness": 2.0,
        "SmallestImagePixelValue": 0,
        "SoftwareVersions": "syngo MR B17",
        "SpacingBetweenSlices": 2.0000000719754,
        "TransmitCoilName": "32Ch_Head_7T",
        "VariableFlipAngleFlag": "N",
        "WindowCenterWidthExplanation": "Algo1",
        "dBdt": 0.0
      },
      "slices": {}
    },
    "modality": "bold",
    "run_id": 13,
    "session_id": "11",
    "subject_id": "003",
    "task_id": "FullFovAttentionTask",
    "time": {
      "samples": {
        "AcquisitionNumber": [
          1,
          2,
          3,
          4,
          5,
          6,
          7,
          8,
          9,
          10,
          11,
          12,
          13,
          14,
          15,
          16,
          17,
          18,
          19,
          20,
          21,
          22,
          23,
          24,
          25,
          26,
          27,
          28,
          29,
          30,
          31,
          32,
          33,
          34,
          35,
          36,
          37,
          38,
          39,
          40,
          41,
          42,
          43,
          44,
          45,
          46,
          47,
          48,
          49,
          50,
          51,
          52,
          53,
          54,
          55,
          56,
          57,
          58,
          59,
          60,
          61,
          62,
          63,
          64,
          65,
          66,
          67,
          68,
          69,
          70,
          71,
          72,
          73,
          74,
          75,
          76,
          77,
          78,
          79,
          80,
          81,
          82,
          83,
          84,
          85,
          86,
          87,
          88,
          89,
          90,
          91,
          92,
          93,
          94,
          95,
          96,
          97,
          98,
          99,
          100,
          101,
          102,
          103,
          104,
          105,
          106,
          107,
          108,
          109,
          110,
          111,
          112,
          113,
          114,
          115,
          116,
          117,
          118,
          119,
          120,
          121,
          122,
          123,
          124,
          125,
          126,
          127,
          128,
          129,
          130,
          131,
          132,
          133,
          134,
          135,
          136,
          137,
          138,
          139,
          140,
          141,
          142,
          143,
          144,
          145,
          146,
          147,
          148,
          149,
          150,
          151,
          152,
          153,
          154,
          155,
          156,
          157,
          158,
          159,
          160,
          161,
          162,
          163,
          164
        ],
        "AcquisitionTime": [
          "184401.835000",
          "184405.850000",
          "184407.857500",
          "184409.867500",
          "184411.875000",
          "184413.882500",
          "184415.890000",
          "184417.897500",
          "184419.907500",
          "184421.915000",
          "184423.922500",
          "184425.930000",
          "184427.940000",
          "184429.947500",
          "184431.955000",
          "184433.962500",
          "184435.970000",
          "184437.980000",
          "184439.987500",
          "184441.995000",
          "184444.002500",
          "184446.010000",
          "184448.020000",
          "184450.027500",
          "184452.035000",
          "184454.042500",
          "184456.050000",
          "184458.060000",
          "184500.067500",
          "184502.075000",
          "184504.082500",
          "184506.092500",
          "184508.100000",
          "184510.107500",
          "184512.115000",
          "184514.122500",
          "184516.132500",
          "184518.140000",
          "184520.147500",
          "184522.155000",
          "184524.162500",
          "184526.172500",
          "184528.180000",
          "184530.187500",
          "184532.195000",
          "184534.205000",
          "184536.212500",
          "184538.220000",
          "184540.227500",
          "184542.235000",
          "184544.245000",
          "184546.252500",
          "184548.260000",
          "184550.267500",
          "184552.275000",
          "184554.285000",
          "184556.292500",
          "184558.300000",
          "184600.307500",
          "184602.317500",
          "184604.325000",
          "184606.332500",
          "184608.340000",
          "184610.347500",
          "184612.357500",
          "184614.365000",
          "184616.372500",
          "184618.380000",
          "184620.387500",
          "184622.397500",
          "184624.405000",
          "184626.412500",
          "184628.420000",
          "184630.427500",
          "184632.437500",
          "184634.445000",
          "184636.452500",
          "184638.460000",
          "184640.470000",
          "184642.477500",
          "184644.485000",
          "184646.492500",
          "184648.500000",
          "184650.510000",
          "184652.517500",
          "184654.525000",
          "184656.532500",
          "184658.540000",
          "184700.550000",
          "184702.557500",
          "184704.565000",
          "184706.572500",
          "184708.582500",
          "184710.590000",
          "184712.597500",
          "184714.605000",
          "184716.612500",
          "184718.622500",
          "184720.630000",
          "184722.637500",
          "184724.645000",
          "184726.652500",
          "184728.662500",
          "184730.670000",
          "184732.677500",
          "184734.685000",
          "184736.695000",
          "184738.702500",
          "184740.710000",
          "184742.717500",
          "184744.725000",
          "184746.735000",
          "184748.742500",
          "184750.750000",
          "184752.757500",
          "184754.765000",
          "184756.775000",
          "184758.782500",
          "184800.790000",
          "184802.797500",
          "184804.805000",
          "184806.815000",
          "184808.822500",
          "184810.830000",
          "184812.837500",
          "184814.847500",
          "184816.855000",
          "184818.862500",
          "184820.870000",
          "184822.877500",
          "184824.887500",
          "184826.895000",
          "184828.902500",
          "184830.910000",
          "184832.917500",
          "184834.927500",
          "184836.935000",
          "184838.942500",
          "184840.950000",
          "184842.960000",
          "184844.967500",
          "184846.975000",
          "184848.982500",
          "184850.990000",
          "184853.000000",
          "184855.007500",
          "184857.015000",
          "184859.022500",
          "184901.030000",
          "184903.040000",
          "184905.047500",
          "184907.055000",
          "184909.062500",
          "184911.072500",
          "184913.080000",
          "184915.087500",
          "184917.095000",
          "184919.102500",
          "184921.112500",
          "184923.120000",
          "184925.127500",
          "184927.135000",
          "184929.142500",
          "184931.152500"
        ],
        "ContentTime": [
          "184442.984000",
          "184442.984000",
          "184442.984000",
          "184442.984000",
          "184443.000000",
          "184443.000000",
          "184443.000000",
          "184443.000000",
          "184443.015000",
          "184443.015000",
          "184443.015000",
          "184443.015000",
          "184443.015000",
          "184443.031000",
          "184443.031000",
          "184443.031000",
          "184443.031000",
          "184443.031000",
          "184443.031000",
          "184522.968000",
          "184522.968000",
          "184522.968000",
          "184522.984000",
          "184522.984000",
          "184522.984000",
          "184522.984000",
          "184522.984000",
          "184523.000000",
          "184523.000000",
          "184523.000000",
          "184523.000000",
          "184523.000000",
          "184523.000000",
          "184523.015000",
          "184523.015000",
          "184523.015000",
          "184523.015000",
          "184523.015000",
          "184523.031000",
          "184602.968000",
          "184602.968000",
          "184602.968000",
          "184602.984000",
          "184602.984000",
          "184602.984000",
          "184602.984000",
          "184602.984000",
          "184603.000000",
          "184603.000000",
          "184603.000000",
          "184603.000000",
          "184603.000000",
          "184603.000000",
          "184603.015000",
          "184603.015000",
          "184603.015000",
          "184603.015000",
          "184603.015000",
          "184603.015000",
          "184642.968000",
          "184642.968000",
          "184642.968000",
          "184642.984000",
          "184642.984000",
          "184642.984000",
          "184642.984000",
          "184642.984000",
          "184643.000000",
          "184643.000000",
          "184643.000000",
          "184643.000000",
          "184643.000000",
          "184643.000000",
          "184643.015000",
          "184643.015000",
          "184643.015000",
          "184643.015000",
          "184643.015000",
          "184643.015000",
          "184722.968000",
          "184722.968000",
          "184722.984000",
          "184722.984000",
          "184722.984000",
          "184722.984000",
          "184722.984000",
          "184723.000000",
          "184723.000000",
          "184723.000000",
          "184723.000000",
          "184723.000000",
          "184723.000000",
          "184723.015000",
          "184723.015000",
          "184723.015000",
          "184723.015000",
          "184723.015000",
          "184723.015000",
          "184723.015000",
          "184802.968000",
          "184802.984000",
          "184802.984000",
          "184802.984000",
          "184802.984000",
          "184802.984000",
          "184802.984000",
          "184803.000000",
          "184803.000000",
          "184803.000000",
          "184803.000000",
          "184803.000000",
          "184803.015000",
          "184803.015000",
          "184803.015000",
          "184803.015000",
          "184803.015000",
          "184803.031000",
          "184803.031000",
          "184803.031000",
          "184842.968000",
          "184842.968000",
          "184842.984000",
          "184842.984000",
          "184842.984000",
          "184842.984000",
          "184842.984000",
          "184843.000000",
          "184843.000000",
          "184843.000000",
          "184843.000000",
          "184843.000000",
          "184843.000000",
          "184843.000000",
          "184843.015000",
          "184843.015000",
          "184843.015000",
          "184843.015000",
          "184843.015000",
          "184843.015000",
          "184922.968000",
          "184922.968000",
          "184922.984000",
          "184922.984000",
          "184922.984000",
          "184922.984000",
          "184922.984000",
          "184923.000000",
          "184923.000000",
          "184923.000000",
          "184923.000000",
          "184923.000000",
          "184923.000000",
          "184923.015000",
          "184923.015000",
          "184923.015000",
          "184923.015000",
          "184923.015000",
          "184923.015000",
          "184923.031000",
          "184932.250000",
          "184932.250000",
          "184932.250000",
          "184932.250000",
          "184932.265000"
        ],
        "InstanceCreationTime": [
          "184442.984000",
          "184442.984000",
          "184442.984000",
          "184442.984000",
          "184443.000000",
          "184443.000000",
          "184443.000000",
          "184443.000000",
          "184443.015000",
          "184443.015000",
          "184443.015000",
          "184443.015000",
          "184443.015000",
          "184443.031000",
          "184443.031000",
          "184443.031000",
          "184443.031000",
          "184443.031000",
          "184443.031000",
          "184522.968000",
          "184522.968000",
          "184522.968000",
          "184522.984000",
          "184522.984000",
          "184522.984000",
          "184522.984000",
          "184522.984000",
          "184523.000000",
          "184523.000000",
          "184523.000000",
          "184523.000000",
          "184523.000000",
          "184523.000000",
          "184523.015000",
          "184523.015000",
          "184523.015000",
          "184523.015000",
          "184523.015000",
          "184523.031000",
          "184602.968000",
          "184602.968000",
          "184602.968000",
          "184602.984000",
          "184602.984000",
          "184602.984000",
          "184602.984000",
          "184602.984000",
          "184603.000000",
          "184603.000000",
          "184603.000000",
          "184603.000000",
          "184603.000000",
          "184603.000000",
          "184603.015000",
          "184603.015000",
          "184603.015000",
          "184603.015000",
          "184603.015000",
          "184603.015000",
          "184642.968000",
          "184642.968000",
          "184642.968000",
          "184642.984000",
          "184642.984000",
          "184642.984000",
          "184642.984000",
          "184642.984000",
          "184643.000000",
          "184643.000000",
          "184643.000000",
          "184643.000000",
          "184643.000000",
          "184643.000000",
          "184643.015000",
          "184643.015000",
          "184643.015000",
          "184643.015000",
          "184643.015000",
          "184643.015000",
          "184722.968000",
          "184722.968000",
          "184722.984000",
          "184722.984000",
          "184722.984000",
          "184722.984000",
          "184722.984000",
          "184723.000000",
          "184723.000000",
          "184723.000000",
          "184723.000000",
          "184723.000000",
          "184723.000000",
          "184723.015000",
          "184723.015000",
          "184723.015000",
          "184723.015000",
          "184723.015000",
          "184723.015000",
          "184723.015000",
          "184802.968000",
          "184802.984000",
          "184802.984000",
          "184802.984000",
          "184802.984000",
          "184802.984000",
          "184802.984000",
          "184803.000000",
          "184803.000000",
          "184803.000000",
          "184803.000000",
          "184803.000000",
          "184803.015000",
          "184803.015000",
          "184803.015000",
          "184803.015000",
          "184803.015000",
          "184803.031000",
          "184803.031000",
          "184803.031000",
          "184842.968000",
          "184842.968000",
          "184842.984000",
          "184842.984000",
          "184842.984000",
          "184842.984000",
          "184842.984000",
          "184843.000000",
          "184843.000000",
          "184843.000000",
          "184843.000000",
          "184843.000000",
          "184843.000000",
          "184843.000000",
          "184843.015000",
          "184843.015000",
          "184843.015000",
          "184843.015000",
          "184843.015000",
          "184843.015000",
          "184922.968000",
          "184922.968000",
          "184922.984000",
          "184922.984000",
          "184922.984000",
          "184922.984000",
          "184922.984000",
          "184923.000000",
          "184923.000000",
          "184923.000000",
          "184923.000000",
          "184923.000000",
          "184923.000000",
          "184923.015000",
          "184923.015000",
          "184923.015000",
          "184923.015000",
          "184923.015000",
          "184923.015000",
          "184923.031000",
          "184932.250000",
          "184932.250000",
          "184932.250000",
          "184932.250000",
          "184932.265000"
        ],
        "InstanceNumber": [
          1,
          2,
          3,
          4,
          5,
          6,
          7,
          8,
          9,
          10,
          11,
          12,
          13,
          14,
          15,
          16,
          17,
          18,
          19,
          20,
          21,
          22,
          23,
          24,
          25,
          26,
          27,
          28,
          29,
          30,
          31,
          32,
          33,
          34,
          35,
          36,
          37,
          38,
          39,
          40,
          41,
          42,
          43,
          44,
          45,
          46,
          47,
          48,
          49,
          50,
          51,
          52,
          53,
          54,
          55,
          56,
          57,
          58,
          59,
          60,
          61,
          62,
          63,
          64,
          65,
          66,
          67,
          68,
          69,
          70,
          71,
          72,
          73,
          74,
          75,
          76,
          77,
          78,
          79,
          80,
          81,
          82,
          83,
          84,
          85,
          86,
          87,
          88,
          89,
          90,
          91,
          92,
          93,
          94,
          95,
          96,
          97,
          98,
          99,
          100,
          101,
          102,
          103,
          104,
          105,
          106,
          107,
          108,
          109,
          110,
          111,
          112,
          113,
          114,
          115,
          116,
          117,
          118,
          119,
          120,
          121,
          122,
          123,
          124,
          125,
          126,
          127,
          128,
          129,
          130,
          131,
          132,
          133,
          134,
          135,
          136,
          137,
          138,
          139,
          140,
          141,
          142,
          143,
          144,
          145,
          146,
          147,
          148,
          149,
          150,
          151,
          152,
          153,
          154,
          155,
          156,
          157,
          158,
          159,
          160,
          161,
          162,
          163,
          164
        ],
        "LargestImagePixelValue": [
          3290,
          3294,
          3300,
          3325,
          3334,
          3280,
          3346,
          3311,
          3267,
          3292,
          3341,
          3368,
          3330,
          3332,
          3347,
          3326,
          3344,
          3322,
          3311,
          3293,
          3318,
          3322,
          3345,
          3366,
          3340,
          3328,
          3362,
          3341,
          3332,
          3343,
          3347,
          3361,
          3369,
          3378,
          3380,
          3358,
          3355,
          3343,
          3385,
          3390,
          3364,
          3368,
          3373,
          3372,
          3373,
          3378,
          3364,
          3375,
          3369,
          3385,
          3361,
          3352,
          3357,
          3356,
          3356,
          3375,
          3365,
          3372,
          3367,
          3371,
          3391,
          3378,
          3360,
          3405,
          3403,
          3378,
          3388,
          3403,
          3400,
          3369,
          3379,
          3390,
          3392,
          3369,
          3359,
          3397,
          3387,
          3378,
          3397,
          3384,
          3371,
          3399,
          3382,
          3343,
          3360,
          3344,
          3345,
          3352,
          3344,
          3348,
          3344,
          3352,
          3360,
          3339,
          3357,
          3353,
          3351,
          3353,
          3362,
          3350,
          3348,
          3329,
          3349,
          3338,
          3356,
          3365,
          3354,
          3329,
          3327,
          3324,
          3310,
          3277,
          3312,
          3312,
          3305,
          3287,
          3274,
          3271,
          3274,
          3288,
          3275,
          3266,
          3244,
          3247,
          3265,
          3249,
          3252,
          3263,
          3264,
          3263,
          3241,
          3236,
          3268,
          3246,
          3250,
          3267,
          3250,
          3234,
          3239,
          3255,
          3218,
          3222,
          3244,
          3253,
          3255,
          3233,
          3245,
          3229,
          3226,
          3218,
          3237,
          3237,
          3198,
          3239,
          3227,
          3204,
          3202,
          3206,
          3212,
          3235,
          3222,
          3221,
          3211,
          3246
        ],
        "WindowCenter": [
          722.0,
          722.0,
          722.0,
          722.0,
          722.0,
          723.0,
          723.0,
          725.0,
          725.0,
          724.0,
          722.0,
          722.0,
          722.0,
          722.0,
          723.0,
          723.0,
          723.0,
          723.0,
          723.0,
          722.0,
          722.0,
          722.0,
          721.0,
          721.0,
          721.0,
          722.0,
          722.0,
          722.0,
          722.0,
          722.0,
          722.0,
          723.0,
          723.0,
          722.0,
          722.0,
          723.0,
          724.0,
          724.0,
          723.0,
          724.0,
          724.0,
          724.0,
          724.0,
          723.0,
          723.0,
          724.0,
          725.0,
          724.0,
          722.0,
          722.0,
          723.0,
          724.0,
          724.0,
          724.0,
          723.0,
          723.0,
          722.0,
          722.0,
          722.0,
          722.0,
          722.0,
          722.0,
          722.0,
          722.0,
          722.0,
          722.0,
          723.0,
          723.0,
          723.0,
          723.0,
          724.0,
          724.0,
          725.0,
          723.0,
          722.0,
          723.0,
          724.0,
          724.0,
          723.0,
          722.0,
          722.0,
          722.0,
          722.0,
          722.0,
          722.0,
          721.0,
          722.0,
          722.0,
          722.0,
          723.0,
          724.0,
          723.0,
          722.0,
          722.0,
          723.0,
          723.0,
          723.0,
          722.0,
          722.0,
          723.0,
          724.0,
          725.0,
          724.0,
          724.0,
          724.0,
          724.0,
          723.0,
          722.0,
          722.0,
          722.0,
          723.0,
          722.0,
          722.0,
          721.0,
          721.0,
          721.0,
          722.0,
          722.0,
