{
  "aor": 0.0012996951219512195,
  "aqi": 0.008554167012195121,
  "bids_meta": {
    "AcquisitionMatrixPE": 96,
    "AcquisitionNumber": 1,
    "AcquisitionTime": "18:01:43.200000",
    "BandwidthPerPixelPhaseEncode": 52.083,
    "BaseResolution": 96,
    "BodyPartExamined": "HEAD",
    "ConversionSoftware": "dcm2niix",
    "ConversionSoftwareVersion": "v1.0.20180622 GCC6.3.0",
    "DerivedVendorReportedEchoSpacing": 0.000600004,
    "DeviceSerialNumber": "18926",
    "DwellTime": 2.6e-06,
    "EchoTime": 0.025,
    "EffectiveEchoSpacing": 0.000200001,
    "FlipAngle": 50,
    "ImageOrientationPatientDICOM": [
      1,
      -2.05103e-10,
      0,
      2.05103e-10,
      1,
      0
    ],
    "ImageType": [
      "ORIGINAL",
      "PRIMARY",
      "M",
      "ND",
      "ECHO",
      "00",
      "MOSAIC"
    ],
    "InPlanePhaseEncodingDirectionDICOM": "ROW",
    "InstitutionName": "NIMH",
    "InstitutionalDepartmentName": "Department",
    "MRAcquisitionType": "2D",
    "MagneticFieldStrength": 6.98,
    "Manufacturer": "Siemens",
    "ManufacturersModelName": "Investigational_Device_7T",
    "Modality": "MR",
    "ParallelReductionFactorInPlane": 3,
    "PartialFourier": 1,
    "PatientPosition": "HFS",
    "PercentPhaseFOV": 100,
    "PhaseEncodingDirection": "i",
    "PhaseEncodingSteps": 94,
    "PhaseResolution": 1,
    "PixelBandwidth": 2003,
    "ProcedureStepDescription": "MRI_Procedure_Limited",
    "ProtocolName": "NIH_EPI1.5_2.0iso_TR2_Run06",
    "PulseSequenceDetails": "%CustomerSeq%_inati_nih_epi_1_5",
    "ReceiveCoilName": "32Ch_Head_7T",
    "ReconMatrixPE": 96,
    "RepetitionTime": 2,
    "SAR": 0.0847833,
    "ScanningSequence": "EP",
    "SequenceName": "epfid2d1_96",
    "SequenceVariant": "SK",
    "SeriesDescription": "NIH_EPI1.5_2.0iso_TR2_Run06",
    "SeriesNumber": 10,
    "ShimSetting": [
      -139,
      131,
      1236,
      2353,
      -246,
      520,
      291,
      -272
    ],
    "SliceThickness": 2,
    "SliceTiming": [
      1.0025,
      0,
      1.04,
      0.0375,
      1.0775,
      0.0725,
      1.115,
      0.11,
      1.1525,
      0.1475,
      1.19,
      0.185,
      1.225,
      0.2225,
      1.2625,
      0.26,
      1.3,
      0.2975,
      1.3375,
      0.335,
      1.375,
      0.37,
      1.4125,
      0.4075,
      1.45,
      0.445,
      1.4875,
      0.4825,
      1.5225,
      0.52,
      1.56,
      0.5575,
      1.5975,
      0.595,
      1.635,
      0.6325,
      1.6725,
      0.6675,
      1.71,
      0.705,
      1.7475,
      0.7425,
      1.785,
      0.78,
      1.82,
      0.8175,
      1.8575,
      0.855,
      1.895,
      0.8925,
      1.9325,
      0.9275,
      1.97,
      0.965
    ],
    "SoftwareVersions": "syngo_MR_B17",
    "SpacingBetweenSlices": 2,
    "StationName": "FMRIFD7T",
    "TaskName": "FullFovAttentionTask",
    "TotalReadoutTime": 0.0190001,
    "TxRefAmp": 276,
    "dataset": "ds001555",
    "dcmmeta_affine": [
      [
        -2.0,
        4.1020681296188855e-10,
        0.0,
        96.0
      ],
      [
        4.1020681296188855e-10,
        2.0,
        0.0,
        -68.3614501953125
      ],
      [
        0.0,
        0.0,
        2.0,
        -32.0843391418457
      ],
      [
        0.0,
        0.0,
        0.0,
        1.0
      ]
    ],
    "dcmmeta_reorient_transform": [
      [
        0.0,
        -1.0,
        0.0,
        95.0
      ],
      [
        1.0,
        0.0,
        0.0,
        0.0
      ],
      [
        0.0,
        0.0,
        1.0,
        0.0
      ],
      [
        0.0,
        0.0,
        0.0,
        1.0
      ]
    ],
    "dcmmeta_shape": [
      96,
      96,
      54,
      164
    ],
    "dcmmeta_slice_dim": 2,
    "dcmmeta_version": 0.6,
    "global": {
      "const": {
        "AcquisitionMatrix": [
          0,
          96,
          96,
          0
        ],
        "Allergies": "No Known Allergies",
        "AngioFlag": "N",
        "BitsAllocated": 16,
        "BitsStored": 12,
        "BodyPartExamined": "HEAD",
        "Columns": 768,
        "EchoNumbers": 1,
        "EchoTime": 25.0,
        "EchoTrainLength": 1,
        "FlipAngle": 50.0,
        "HighBit": 11,
        "ImageOrientationPatient": [
          1.0,
          -2.051034e-10,
          0.0,
          2.051034e-10,
          1.0,
          0.0
        ],
        "ImagePositionPatient": [
          -768.00000015752,
          -793.63855346187,
          -32.084339141846
        ],
        "ImageType": [
          "ORIGINAL",
          "PRIMARY",
          "M",
          "ND",
          "ECHO_00",
          "MOSAIC"
        ],
        "ImagedNucleus": "1H",
        "ImagingFrequency": 297.20493,
        "InPlanePhaseEncodingDirection": "ROW",
        "MRAcquisitionType": "2D",
        "MagneticFieldStrength": 6.98,
        "Manufacturer": "SIEMENS",
        "ManufacturerModelName": "Investigational_Device_7T",
        "Modality": "MR",
        "NumberOfAverages": 1.0,
        "NumberOfPhaseEncodingSteps": 94,
        "PercentPhaseFieldOfView": 100.0,
        "PercentSampling": 100.0,
        "PerformedProcedureStepStartTime": "165915.421000",
        "PhotometricInterpretation": "MONOCHROME2",
        "PixelBandwidth": 2003.0,
        "PixelRepresentation": 0,
        "PixelSpacing": [
          2.0,
          2.0
        ],
        "PositionReferenceIndicator": "",
        "ProcedureCodeSequence": [
          {
            "CodeMeaning": "MRI Procedure Limited",
            "CodeValue": "MI01491",
            "CodingSchemeDesignator": "USA Standard",
            "ContextIdentifier": "4000140010"
          }
        ],
        "ProtocolName": "NIH_EPI1.5_2.0iso_TR2_Run06",
        "ReferencedStudySequence": [
          {
            "ReferencedSOPClassUID": "1.2.840.10008.3.1.2.3.1",
            "ReferencedSOPInstanceUID": "1.2.840.113564.9.1.2787814059.53.2.5000105881"
          }
        ],
        "RepetitionTime": 2000.0,
        "RequestedProcedureCodeSequence": [
          {
            "CodeMeaning": "MRI Procedure Limited",
            "CodeValue": "MI01491",
            "CodingSchemeDesignator": "USA Standard",
            "ContextIdentifier": "4000140010"
          }
        ],
        "RequestingService": "NIMH Molecular Imaging Branch",
        "Rows": 768,
        "SAR": 0.08478332352825,
        "SamplesPerPixel": 1,
        "ScanningSequence": "EP",
        "SequenceName": "epfid2d1_96",
        "SequenceVariant": "SK",
        "SeriesDescription": "NIH_EPI1.5_2.0iso_TR2_Run06",
        "SeriesNumber": 10,
        "SliceLocation": -32.084339141846,
        "SliceThickness": 2.0,
        "SmallestImagePixelValue": 0,
        "SoftwareVersions": "syngo MR B17",
        "SpacingBetweenSlices": 2.0000000719754,
        "TransmitCoilName": "32Ch_Head_7T",
        "VariableFlipAngleFlag": "N",
        "WindowCenterWidthExplanation": "Algo1",
        "dBdt": 0.0
      },
      "slices": {}
    },
    "modality": "bold",
    "run_id": 7,
    "session_id": "11",
    "subject_id": "003",
    "task_id": "FullFovAttentionTask",
    "time": {
      "samples": {
        "AcquisitionNumber": [
          1,
          2,
          3,
          4,
          5,
          6,
          7,
          8,
          9,
          10,
          11,
          12,
          13,
          14,
          15,
          16,
          17,
          18,
          19,
          20,
          21,
          22,
          23,
          24,
          25,
          26,
          27,
          28,
          29,
          30,
          31,
          32,
          33,
          34,
          35,
          36,
          37,
          38,
          39,
          40,
          41,
          42,
          43,
          44,
          45,
          46,
          47,
          48,
          49,
          50,
          51,
          52,
          53,
          54,
          55,
          56,
          57,
          58,
          59,
          60,
          61,
          62,
          63,
          64,
          65,
          66,
          67,
          68,
          69,
          70,
          71,
          72,
          73,
          74,
          75,
          76,
          77,
          78,
          79,
          80,
          81,
          82,
          83,
          84,
          85,
          86,
          87,
          88,
          89,
          90,
          91,
          92,
          93,
          94,
          95,
          96,
          97,
          98,
          99,
          100,
          101,
          102,
          103,
          104,
          105,
          106,
          107,
          108,
          109,
          110,
          111,
          112,
          113,
          114,
          115,
          116,
          117,
          118,
          119,
          120,
          121,
          122,
          123,
          124,
          125,
          126,
          127,
          128,
          129,
          130,
          131,
          132,
          133,
          134,
          135,
          136,
          137,
          138,
          139,
          140,
          141,
          142,
          143,
          144,
          145,
          146,
          147,
          148,
          149,
          150,
          151,
          152,
          153,
          154,
          155,
          156,
          157,
          158,
          159,
          160,
          161,
          162,
          163,
          164
        ],
        "AcquisitionTime": [
          "180143.200000",
          "180147.217500",
          "180149.225000",
          "180151.232500",
          "180153.240000",
          "180155.250000",
          "180157.257500",
          "180159.265000",
          "180201.272500",
          "180203.280000",
          "180205.290000",
          "180207.297500",
          "180209.305000",
          "180211.312500",
          "180213.320000",
          "180215.330000",
          "180217.337500",
          "180219.345000",
          "180221.352500",
          "180223.360000",
          "180225.370000",
          "180227.377500",
          "180229.385000",
          "180231.392500",
          "180233.402500",
          "180235.410000",
          "180237.417500",
          "180239.425000",
          "180241.432500",
          "180243.442500",
          "180245.450000",
          "180247.457500",
          "180249.465000",
          "180251.472500",
          "180253.482500",
          "180255.490000",
          "180257.497500",
          "180259.505000",
          "180301.515000",
          "180303.522500",
          "180305.530000",
          "180307.537500",
          "180309.545000",
          "180311.555000",
          "180313.562500",
          "180315.570000",
          "180317.577500",
          "180319.585000",
          "180321.595000",
          "180323.602500",
          "180325.610000",
          "180327.617500",
          "180329.627500",
          "180331.635000",
          "180333.642500",
          "180335.650000",
          "180337.657500",
          "180339.667500",
          "180341.675000",
          "180343.682500",
          "180345.690000",
          "180347.697500",
          "180349.707500",
          "180351.715000",
          "180353.722500",
          "180355.730000",
          "180357.737500",
          "180359.747500",
          "180401.755000",
          "180403.762500",
          "180405.770000",
          "180407.780000",
          "180409.787500",
          "180411.795000",
          "180413.802500",
          "180415.810000",
          "180417.820000",
          "180419.827500",
          "180421.835000",
          "180423.842500",
          "180425.850000",
          "180427.860000",
          "180429.867500",
          "180431.875000",
          "180433.882500",
          "180435.892500",
          "180437.900000",
          "180439.907500",
          "180441.915000",
          "180443.922500",
          "180445.932500",
          "180447.940000",
          "180449.947500",
          "180451.955000",
          "180453.962500",
          "180455.972500",
          "180457.980000",
          "180459.987500",
          "180501.995000",
          "180504.005000",
          "180506.012500",
          "180508.020000",
          "180510.027500",
          "180512.035000",
          "180514.045000",
          "180516.052500",
          "180518.060000",
          "180520.067500",
          "180522.075000",
          "180524.085000",
          "180526.092500",
          "180528.100000",
          "180530.107500",
          "180532.115000",
          "180534.125000",
          "180536.132500",
          "180538.140000",
          "180540.147500",
          "180542.157500",
          "180544.165000",
          "180546.172500",
          "180548.180000",
          "180550.187500",
          "180552.197500",
          "180554.205000",
          "180556.212500",
          "180558.220000",
          "180600.227500",
          "180602.237500",
          "180604.245000",
          "180606.252500",
          "180608.260000",
          "180610.270000",
          "180612.277500",
          "180614.285000",
          "180616.292500",
          "180618.300000",
          "180620.310000",
          "180622.317500",
          "180624.325000",
          "180626.332500",
          "180628.340000",
          "180630.350000",
          "180632.357500",
          "180634.365000",
          "180636.372500",
          "180638.382500",
          "180640.390000",
          "180642.397500",
          "180644.405000",
          "180646.412500",
          "180648.422500",
          "180650.430000",
          "180652.437500",
          "180654.445000",
          "180656.452500",
          "180658.462500",
          "180700.470000",
          "180702.477500",
          "180704.485000",
          "180706.492500",
          "180708.502500",
          "180710.510000",
          "180712.517500"
        ],
        "ContentTime": [
          "180242.984000",
          "180242.984000",
          "180242.984000",
          "180242.984000",
          "180243.000000",
          "180243.000000",
          "180243.000000",
          "180243.000000",
          "180243.000000",
          "180243.000000",
          "180243.015000",
          "180243.015000",
          "180243.015000",
          "180243.015000",
          "180243.015000",
          "180243.015000",
          "180243.031000",
          "180243.031000",
          "180243.031000",
          "180243.031000",
          "180243.031000",
          "180243.031000",
          "180243.046000",
          "180243.046000",
          "180243.046000",
          "180243.046000",
          "180243.062000",
          "180243.062000",
          "180322.968000",
          "180322.968000",
          "180322.968000",
          "180322.968000",
          "180322.984000",
          "180322.984000",
          "180322.984000",
          "180323.000000",
          "180323.000000",
          "180323.000000",
          "180323.000000",
          "180323.000000",
          "180323.000000",
          "180323.015000",
          "180323.015000",
          "180323.015000",
          "180323.015000",
          "180323.015000",
          "180323.015000",
          "180323.031000",
          "180402.968000",
          "180402.968000",
          "180402.968000",
          "180402.968000",
          "180402.984000",
          "180402.984000",
          "180402.984000",
          "180402.984000",
          "180402.984000",
          "180402.984000",
          "180403.000000",
          "180403.000000",
          "180403.000000",
          "180403.000000",
          "180403.000000",
          "180403.000000",
          "180403.015000",
          "180403.015000",
          "180403.015000",
          "180403.015000",
          "180442.968000",
          "180442.968000",
          "180442.968000",
          "180442.968000",
          "180442.984000",
          "180442.984000",
          "180442.984000",
          "180442.984000",
          "180442.984000",
          "180443.000000",
          "180443.000000",
          "180443.000000",
          "180443.000000",
          "180443.000000",
          "180443.015000",
          "180443.015000",
          "180443.015000",
          "180443.015000",
          "180443.015000",
          "180443.015000",
          "180522.968000",
          "180522.968000",
          "180522.968000",
          "180522.968000",
          "180522.984000",
          "180522.984000",
          "180522.984000",
          "180522.984000",
          "180522.984000",
          "180522.984000",
          "180522.984000",
          "180523.000000",
          "180523.000000",
          "180523.000000",
          "180523.000000",
          "180523.015000",
          "180523.015000",
          "180523.015000",
          "180523.031000",
          "180523.031000",
          "180602.968000",
          "180602.968000",
          "180602.984000",
          "180602.984000",
          "180602.984000",
          "180602.984000",
          "180603.000000",
          "180603.000000",
          "180603.000000",
          "180603.000000",
          "180603.000000",
          "180603.000000",
          "180603.015000",
          "180603.015000",
          "180603.015000",
          "180603.015000",
          "180603.015000",
          "180603.015000",
          "180603.031000",
          "180603.031000",
          "180642.968000",
          "180642.968000",
          "180642.968000",
          "180642.968000",
          "180642.984000",
          "180642.984000",
          "180643.000000",
          "180643.000000",
          "180643.000000",
          "180643.000000",
          "180643.000000",
          "180643.000000",
          "180643.015000",
          "180643.015000",
          "180643.015000",
          "180643.015000",
          "180643.015000",
          "180643.015000",
          "180643.031000",
          "180643.031000",
          "180713.312000",
          "180713.312000",
          "180713.312000",
          "180713.312000",
          "180713.312000",
          "180713.328000",
          "180713.328000",
          "180713.328000",
          "180713.328000",
          "180713.328000",
          "180713.328000",
          "180713.343000",
          "180713.343000",
          "180713.343000",
          "180713.343000",
          "180713.343000"
        ],
        "InstanceCreationTime": [
          "180242.984000",
          "180242.984000",
          "180242.984000",
          "180242.984000",
          "180243.000000",
          "180243.000000",
          "180243.000000",
          "180243.000000",
          "180243.000000",
          "180243.000000",
          "180243.015000",
          "180243.015000",
          "180243.015000",
          "180243.015000",
          "180243.015000",
          "180243.015000",
          "180243.031000",
          "180243.031000",
          "180243.031000",
          "180243.031000",
          "180243.031000",
          "180243.031000",
          "180243.046000",
          "180243.046000",
          "180243.046000",
          "180243.046000",
          "180243.062000",
          "180243.062000",
          "180322.968000",
          "180322.968000",
          "180322.968000",
          "180322.968000",
          "180322.984000",
          "180322.984000",
          "180322.984000",
          "180323.000000",
          "180323.000000",
          "180323.000000",
          "180323.000000",
          "180323.000000",
          "180323.000000",
          "180323.015000",
          "180323.015000",
          "180323.015000",
          "180323.015000",
          "180323.015000",
          "180323.015000",
          "180323.031000",
          "180402.968000",
          "180402.968000",
          "180402.968000",
          "180402.968000",
          "180402.984000",
          "180402.984000",
          "180402.984000",
          "180402.984000",
          "180402.984000",
          "180402.984000",
          "180403.000000",
          "180403.000000",
          "180403.000000",
          "180403.000000",
          "180403.000000",
          "180403.000000",
          "180403.015000",
          "180403.015000",
          "180403.015000",
          "180403.015000",
          "180442.968000",
          "180442.968000",
          "180442.968000",
          "180442.968000",
          "180442.984000",
          "180442.984000",
          "180442.984000",
          "180442.984000",
          "180442.984000",
          "180443.000000",
          "180443.000000",
          "180443.000000",
          "180443.000000",
          "180443.000000",
          "180443.015000",
          "180443.015000",
          "180443.015000",
          "180443.015000",
          "180443.015000",
          "180443.015000",
          "180522.968000",
          "180522.968000",
          "180522.968000",
          "180522.968000",
          "180522.984000",
          "180522.984000",
          "180522.984000",
          "180522.984000",
          "180522.984000",
          "180522.984000",
          "180522.984000",
          "180523.000000",
          "180523.000000",
          "180523.000000",
          "180523.000000",
          "180523.015000",
          "180523.015000",
          "180523.015000",
          "180523.031000",
          "180523.031000",
          "180602.968000",
          "180602.968000",
          "180602.984000",
          "180602.984000",
          "180602.984000",
          "180602.984000",
          "180603.000000",
          "180603.000000",
          "180603.000000",
          "180603.000000",
          "180603.000000",
          "180603.000000",
          "180603.015000",
          "180603.015000",
          "180603.015000",
          "180603.015000",
          "180603.015000",
          "180603.015000",
          "180603.031000",
          "180603.031000",
          "180642.968000",
          "180642.968000",
          "180642.968000",
          "180642.968000",
          "180642.984000",
          "180642.984000",
          "180643.000000",
          "180643.000000",
          "180643.000000",
          "180643.000000",
          "180643.000000",
          "180643.000000",
          "180643.015000",
          "180643.015000",
          "180643.015000",
          "180643.015000",
          "180643.015000",
          "180643.015000",
          "180643.031000",
          "180643.031000",
          "180713.312000",
          "180713.312000",
          "180713.312000",
          "180713.312000",
          "180713.312000",
          "180713.328000",
          "180713.328000",
          "180713.328000",
          "180713.328000",
          "180713.328000",
          "180713.328000",
          "180713.343000",
          "180713.343000",
          "180713.343000",
          "180713.343000",
          "180713.343000"
        ],
        "InstanceNumber": [
          1,
          2,
          3,
          4,
          5,
          6,
          7,
          8,
          9,
          10,
          11,
          12,
          13,
          14,
          15,
          16,
          17,
          18,
          19,
          20,
          21,
          22,
          23,
          24,
          25,
          26,
          27,
          28,
          29,
          30,
          31,
          32,
          33,
          34,
          35,
          36,
          37,
          38,
          39,
          40,
          41,
          42,
          43,
          44,
          45,
          46,
          47,
          48,
          49,
          50,
          51,
          52,
          53,
          54,
          55,
          56,
          57,
          58,
          59,
          60,
          61,
          62,
          63,
          64,
          65,
          66,
          67,
          68,
          69,
          70,
          71,
          72,
          73,
          74,
          75,
          76,
          77,
          78,
          79,
          80,
          81,
          82,
          83,
          84,
          85,
          86,
          87,
          88,
          89,
          90,
          91,
          92,
          93,
          94,
          95,
          96,
          97,
          98,
          99,
          100,
          101,
          102,
          103,
          104,
          105,
          106,
          107,
          108,
          109,
          110,
          111,
          112,
          113,
          114,
          115,
          116,
          117,
          118,
          119,
          120,
          121,
          122,
          123,
          124,
          125,
          126,
          127,
          128,
          129,
          130,
          131,
          132,
          133,
          134,
          135,
          136,
          137,
          138,
          139,
          140,
          141,
          142,
          143,
          144,
          145,
          146,
          147,
          148,
          149,
          150,
          151,
          152,
          153,
          154,
          155,
          156,
          157,
          158,
          159,
          160,
          161,
          162,
          163,
          164
        ],
        "LargestImagePixelValue": [
          3408,
          3386,
          3376,
          3344,
          3272,
          3296,
          3355,
          3305,
          3345,
          3318,
          3296,
          3332,
          3327,
          3337,
          3328,
          3333,
          3318,
          3335,
          3388,
          3284,
          3297,
          3327,
          3328,
          3338,
          3326,
          3306,
          3336,
          3336,
          3321,
          3319,
          3347,
          3326,
          3348,
          3312,
          3383,
          3330,
          3321,
          3333,
          3337,
          3359,
          3340,
          3283,
          3301,
          3319,
          3297,
          3325,
          3335,
          3380,
          3325,
          3351,
          3372,
          3391,
          3351,
          3342,
          3365,
          3383,
          3325,
          3335,
          3380,
          3339,
          3372,
          3374,
          3353,
          3347,
          3338,
          3367,
          3351,
          3348,
          3361,
          3355,
          3344,
          3345,
          3378,
          3361,
          3370,
          3358,
          3346,
          3354,
          3363,
          3401,
          3357,
          3379,
          3363,
          3393,
          3357,
          3381,
          3368,
          3328,
          3348,
          3399,
          3384,
          3375,
          3410,
          3363,
          3356,
          3366,
          3385,
          3366,
          3408,
          3372,
          3366,
          3372,
          3335,
          3402,
          3367,
          3372,
          3379,
          3346,
          3368,
          3309,
          3357,
          3373,
          3436,
          3394,
          3384,
          3399,
          3402,
          3369,
          3351,
          3339,
          3375,
          3318,
          3350,
          3376,
          3376,
          3326,
          3357,
          3387,
          3341,
          3331,
          3391,
          3364,
          3346,
          3395,
          3360,
          3348,
          3422,
          3401,
          3355,
          3416,
          3382,
          3371,
          3390,
          3330,
          3357,
          3409,
          3343,
          3348,
          3381,
          3393,
          3354,
          3363,
          3411,
          3348,
          3360,
          3407,
          3369,
          3368,
          3443,
          3380,
          3376,
          3409,
          3391,
          3366
        ],
        "WindowCenter": [
          727.0,
          727.0,
          727.0,
          728.0,
          730.0,
          728.0,
          726.0,
          726.0,
          728.0,
          728.0,
          727.0,
          727.0,
          726.0,
          726.0,
          727.0,
          729.0,
          729.0,
          728.0,
          727.0,
          728.0,
          729.0,
          728.0,
          726.0,
          726.0,
          726.0,
          726.0,
          727.0,
          727.0,
          728.0,
          728.0,
          728.0,
          728.0,
          728.0,
          728.0,
          728.0,
          728.0,
          729.0,
          730.0,
          730.0,
          730.0,
          730.0,
          729.0,
          730.0,
          730.0,
          730.0,
          729.0,
          729.0,
          729.0,
          728.0,
          727.0,
          727.0,
          727.0,
          727.0,
          728.0,
          728.0,
          727.0,
          726.0,
          727.0,
          728.0,
          727.0,
          727.0,
          727.0,
          727.0,
          727.0,
          728.0,
          728.0,
          728.0,
          728.0,
          728.0,
          729.0,
          728.0,
          727.0,
          727.0,
          728.0,
          729.0,
          729.0,
          729.0,
          727.0,
          727.0,
          726.0,
          726.0,
          727.0,
          727.0,
          727.0,
          727.0,
          727.0,
          727.0,
          726.0,
          727.0,
          727.0,
          727.0,
          727.0,
          727.0,
          727.0,
          727.0,
          727.0,
          727.0,
          728.0,
          728.0,
          727.0,
          727.0,
          727.0,
          730.0,
          731.0,
          730.0,
          728.0,
          728.0,
          728.0,
          728.0,
          728.0,
          728.0,
          730.0,
          729.0,
          728.0,
          728.0,
          728.0,
          727.0,
          726.0,
