{
  "aor": 0.0018054268292682929,
  "aqi": 0.0047703501219512195,
  "bids_meta": {
    "AcquisitionMatrixPE": 96,
    "AcquisitionNumber": 1,
    "AcquisitionTime": "18:51:36.222500",
    "BandwidthPerPixelPhaseEncode": 52.083,
    "BaseResolution": 96,
    "BodyPartExamined": "HEAD",
    "ConversionSoftware": "dcm2niix",
    "ConversionSoftwareVersion": "v1.0.20180622 GCC6.3.0",
    "DerivedVendorReportedEchoSpacing": 0.000600004,
    "DeviceSerialNumber": "18926",
    "DwellTime": 2.6e-06,
    "EchoTime": 0.025,
    "EffectiveEchoSpacing": 0.000200001,
    "FlipAngle": 50,
    "ImageOrientationPatientDICOM": [
      0.999992,
      0.00067012,
      0.00404905,
      2.11009e-10,
      0.98658,
      -0.16328
    ],
    "ImageType": [
      "ORIGINAL",
      "PRIMARY",
      "M",
      "ND",
      "ECHO",
      "00",
      "MOSAIC"
    ],
    "InPlanePhaseEncodingDirectionDICOM": "ROW",
    "InstitutionName": "NIMH",
    "InstitutionalDepartmentName": "Department",
    "MRAcquisitionType": "2D",
    "MagneticFieldStrength": 6.98,
    "Manufacturer": "Siemens",
    "ManufacturersModelName": "Investigational_Device_7T",
    "Modality": "MR",
    "ParallelReductionFactorInPlane": 3,
    "PartialFourier": 1,
    "PatientPosition": "HFS",
    "PercentPhaseFOV": 100,
    "PhaseEncodingDirection": "i",
    "PhaseEncodingSteps": 94,
    "PhaseResolution": 1,
    "PixelBandwidth": 2003,
    "ProcedureStepDescription": "MRI_Procedure_Limited",
    "ProtocolName": "NIH_EPI_2.0iso_TR2_Run03",
    "PulseSequenceDetails": "%CustomerSeq%_inati_nih_epi",
    "ReceiveCoilName": "32Ch_Head_7T",
    "ReconMatrixPE": 96,
    "RepetitionTime": 2,
    "SAR": 0.0856902,
    "ScanningSequence": "EP",
    "SequenceName": "epfid2d1_96",
    "SequenceVariant": "SK",
    "SeriesDescription": "NIH_EPI_2.0iso_TR2_Run03",
    "SeriesNumber": 8,
    "ShimSetting": [
      -93,
      133,
      1370,
      2277,
      -119,
      -62,
      1168,
      -283
    ],
    "SliceThickness": 2,
    "SliceTiming": [
      1.005,
      0,
      1.0425,
      0.0375,
      1.08,
      0.075,
      1.115,
      0.1125,
      1.1525,
      0.15,
      1.19,
      0.1875,
      1.2275,
      0.2225,
      1.265,
      0.26,
      1.3025,
      0.2975,
      1.34,
      0.335,
      1.375,
      0.3725,
      1.4125,
      0.41,
      1.45,
      0.4475,
      1.4875,
      0.485,
      1.525,
      0.52,
      1.5625,
      0.5575,
      1.6,
      0.595,
      1.6375,
      0.6325,
      1.6725,
      0.67,
      1.71,
      0.7075,
      1.7475,
      0.745,
      1.785,
      0.7825,
      1.8225,
      0.8175,
      1.86,
      0.855,
      1.8975,
      0.8925,
      1.935,
      0.93,
      1.97,
      0.9675
    ],
    "SoftwareVersions": "syngo_MR_B17",
    "SpacingBetweenSlices": 2,
    "StationName": "FMRIFD7T",
    "TaskName": "FullFovNoAttentionTask",
    "TotalReadoutTime": 0.0190001,
    "TxRefAmp": 292,
    "dataset": "ds001555",
    "dcmmeta_affine": [
      [
        -1.9999831914901733,
        4.2201880878778297e-10,
        0.008208253420889378,
        95.76705169677734
      ],
      [
        -0.0013402394251897931,
        1.973159670829773,
        -0.32655632495880127,
        -61.768768310546875
      ],
      [
        0.008098097518086433,
        0.32655906677246094,
        1.9731431007385254,
        -34.148643493652344
      ],
      [
        0.0,
        0.0,
        0.0,
        1.0
      ]
    ],
    "dcmmeta_reorient_transform": [
      [
        0.0,
        -1.0,
        0.0,
        95.0
      ],
      [
        1.0,
        0.0,
        0.0,
        0.0
      ],
      [
        0.0,
        0.0,
        1.0,
        0.0
      ],
      [
        0.0,
        0.0,
        0.0,
        1.0
      ]
    ],
    "dcmmeta_shape": [
      96,
      96,
      54,
      164
    ],
    "dcmmeta_slice_dim": 2,
    "dcmmeta_version": 0.6,
    "global": {
      "const": {
        "AcquisitionMatrix": [
          0,
          96,
          96,
          0
        ],
        "Allergies": "No Known Allergies",
        "AngioFlag": "N",
        "BitsAllocated": 16,
        "BitsStored": 12,
        "BodyPartExamined": "HEAD",
        "Columns": 768,
        "EchoNumbers": 1,
        "EchoTime": 25.0,
        "EchoTrainLength": 1,
        "FlipAngle": 50.0,
        "HighBit": 11,
        "ImageOrientationPatient": [
          0.99999157803662,
          0.00067011969073,
          0.00404904870684,
          2.110094e-10,
          0.98657984636313,
          -0.1632795356133
        ],
        "ImagePositionPatient": [
          -767.761392775,
          -789.11337897392,
          103.87735661079
        ],
        "ImageType": [
          "ORIGINAL",
          "PRIMARY",
          "M",
          "ND",
          "ECHO_00",
          "MOSAIC"
        ],
        "ImagedNucleus": "1H",
        "ImagingFrequency": 297.204867,
        "InPlanePhaseEncodingDirection": "ROW",
        "LargestImagePixelValue": 4095,
        "MRAcquisitionType": "2D",
        "MagneticFieldStrength": 6.98,
        "Manufacturer": "SIEMENS",
        "ManufacturerModelName": "Investigational_Device_7T",
        "Modality": "MR",
        "NumberOfAverages": 1.0,
        "NumberOfPhaseEncodingSteps": 94,
        "PercentPhaseFieldOfView": 100.0,
        "PercentSampling": 100.0,
        "PerformedProcedureStepStartTime": "181540.759000",
        "PhotometricInterpretation": "MONOCHROME2",
        "PixelBandwidth": 2003.0,
        "PixelRepresentation": 0,
        "PixelSpacing": [
          2.0,
          2.0
        ],
        "PositionReferenceIndicator": "",
        "ProcedureCodeSequence": [
          {
            "CodeMeaning": "MRI Procedure Limited",
            "CodeValue": "MI01491",
            "CodingSchemeDesignator": "USA Standard",
            "ContextIdentifier": "4000107252"
          }
        ],
        "ProtocolName": "NIH_EPI_2.0iso_TR2_Run03",
        "ReferencedStudySequence": [
          {
            "ReferencedSOPClassUID": "1.2.840.10008.3.1.2.3.1",
            "ReferencedSOPInstanceUID": "1.2.840.113564.9.1.2723958737.61.2.5000073014"
          }
        ],
        "RepetitionTime": 2000.0,
        "RequestedProcedureCodeSequence": [
          {
            "CodeMeaning": "MRI Procedure Limited",
            "CodeValue": "MI01491",
            "CodingSchemeDesignator": "USA Standard",
            "ContextIdentifier": "4000107252"
          }
        ],
        "RequestingService": "MHED",
        "Rows": 768,
        "SAR": 0.08569017315284,
        "SamplesPerPixel": 1,
        "ScanningSequence": "EP",
        "SequenceName": "epfid2d1_96",
        "SequenceVariant": "SK",
        "SeriesDescription": "NIH_EPI_2.0iso_TR2_Run03",
        "SeriesNumber": 8,
        "SliceLocation": -23.21154749564,
        "SliceThickness": 2.0,
        "SmallestImagePixelValue": 0,
        "SoftwareVersions": "syngo MR B17",
        "SpacingBetweenSlices": 1.9999999799801,
        "TransmitCoilName": "32Ch_Head_7T",
        "VariableFlipAngleFlag": "N",
        "WindowCenterWidthExplanation": "Algo1",
        "dBdt": 0.0
      },
      "slices": {}
    },
    "modality": "bold",
    "run_id": 5,
    "session_id": "01",
    "subject_id": "002",
    "task_id": "FullFovNoAttentionTask",
    "time": {
      "samples": {
        "AcquisitionNumber": [
          1,
          2,
          3,
          4,
          5,
          6,
          7,
          8,
          9,
          10,
          11,
          12,
          13,
          14,
          15,
          16,
          17,
          18,
          19,
          20,
          21,
          22,
          23,
          24,
          25,
          26,
          27,
          28,
          29,
          30,
          31,
          32,
          33,
          34,
          35,
          36,
          37,
          38,
          39,
          40,
          41,
          42,
          43,
          44,
          45,
          46,
          47,
          48,
          49,
          50,
          51,
          52,
          53,
          54,
          55,
          56,
          57,
          58,
          59,
          60,
          61,
          62,
          63,
          64,
          65,
          66,
          67,
          68,
          69,
          70,
          71,
          72,
          73,
          74,
          75,
          76,
          77,
          78,
          79,
          80,
          81,
          82,
          83,
          84,
          85,
          86,
          87,
          88,
          89,
          90,
          91,
          92,
          93,
          94,
          95,
          96,
          97,
          98,
          99,
          100,
          101,
          102,
          103,
          104,
          105,
          106,
          107,
          108,
          109,
          110,
          111,
          112,
          113,
          114,
          115,
          116,
          117,
          118,
          119,
          120,
          121,
          122,
          123,
          124,
          125,
          126,
          127,
          128,
          129,
          130,
          131,
          132,
          133,
          134,
          135,
          136,
          137,
          138,
          139,
          140,
          141,
          142,
          143,
          144,
          145,
          146,
          147,
          148,
          149,
          150,
          151,
          152,
          153,
          154,
          155,
          156,
          157,
          158,
          159,
          160,
          161,
          162,
          163,
          164
        ],
        "AcquisitionTime": [
          "185136.222500",
          "185140.237500",
          "185142.245000",
          "185144.255000",
          "185146.262500",
          "185148.270000",
          "185150.277500",
          "185152.285000",
          "185154.295000",
          "185156.302500",
          "185158.310000",
          "185200.317500",
          "185202.327500",
          "185204.335000",
          "185206.342500",
          "185208.350000",
          "185210.357500",
          "185212.367500",
          "185214.375000",
          "185216.382500",
          "185218.390000",
          "185220.397500",
          "185222.407500",
          "185224.415000",
          "185226.422500",
          "185228.430000",
          "185230.440000",
          "185232.447500",
          "185234.455000",
          "185236.462500",
          "185238.470000",
          "185240.480000",
          "185242.487500",
          "185244.495000",
          "185246.502500",
          "185248.510000",
          "185250.520000",
          "185252.527500",
          "185254.535000",
          "185256.542500",
          "185258.552500",
          "185300.560000",
          "185302.567500",
          "185304.575000",
          "185306.582500",
          "185308.592500",
          "185310.600000",
          "185312.607500",
          "185314.615000",
          "185316.622500",
          "185318.632500",
          "185320.640000",
          "185322.647500",
          "185324.655000",
          "185326.662500",
          "185328.672500",
          "185330.680000",
          "185332.687500",
          "185334.695000",
          "185336.705000",
          "185338.712500",
          "185340.720000",
          "185342.727500",
          "185344.735000",
          "185346.745000",
          "185348.752500",
          "185350.760000",
          "185352.767500",
          "185354.775000",
          "185356.785000",
          "185358.792500",
          "185400.800000",
          "185402.807500",
          "185404.817500",
          "185406.825000",
          "185408.832500",
          "185410.840000",
          "185412.847500",
          "185414.857500",
          "185416.865000",
          "185418.872500",
          "185420.880000",
          "185422.887500",
          "185424.897500",
          "185426.905000",
          "185428.912500",
          "185430.920000",
          "185432.930000",
          "185434.937500",
          "185436.945000",
          "185438.952500",
          "185440.960000",
          "185442.970000",
          "185444.977500",
          "185446.985000",
          "185448.992500",
          "185451.000000",
          "185453.010000",
          "185455.017500",
          "185457.025000",
          "185459.032500",
          "185501.040000",
          "185503.050000",
          "185505.057500",
          "185507.065000",
          "185509.072500",
          "185511.082500",
          "185513.090000",
          "185515.097500",
          "185517.105000",
          "185519.112500",
          "185521.122500",
          "185523.130000",
          "185525.137500",
          "185527.145000",
          "185529.152500",
          "185531.162500",
          "185533.170000",
          "185535.177500",
          "185537.185000",
          "185539.195000",
          "185541.202500",
          "185543.210000",
          "185545.217500",
          "185547.225000",
          "185549.235000",
          "185551.242500",
          "185553.250000",
          "185555.257500",
          "185557.265000",
          "185559.275000",
          "185601.282500",
          "185603.290000",
          "185605.297500",
          "185607.307500",
          "185609.315000",
          "185611.322500",
          "185613.330000",
          "185615.337500",
          "185617.347500",
          "185619.355000",
          "185621.362500",
          "185623.370000",
          "185625.377500",
          "185627.387500",
          "185629.395000",
          "185631.402500",
          "185633.410000",
          "185635.417500",
          "185637.427500",
          "185639.435000",
          "185641.442500",
          "185643.450000",
          "185645.460000",
          "185647.467500",
          "185649.475000",
          "185651.482500",
          "185653.490000",
          "185655.500000",
          "185657.507500",
          "185659.515000",
          "185701.522500",
          "185703.530000",
          "185705.540000"
        ],
        "ContentTime": [
          "185221.634000",
          "185221.634000",
          "185221.634000",
          "185221.634000",
          "185221.634000",
          "185221.634000",
          "185221.649000",
          "185221.649000",
          "185221.665000",
          "185221.665000",
          "185221.665000",
          "185221.665000",
          "185221.665000",
          "185221.665000",
          "185221.665000",
          "185221.681000",
          "185221.681000",
          "185221.681000",
          "185221.681000",
          "185221.681000",
          "185221.681000",
          "185301.618000",
          "185301.618000",
          "185301.618000",
          "185301.618000",
          "185301.634000",
          "185301.634000",
          "185301.634000",
          "185301.634000",
          "185301.634000",
          "185301.634000",
          "185301.634000",
          "185301.649000",
          "185301.649000",
          "185301.649000",
          "185301.649000",
          "185301.649000",
          "185301.649000",
          "185301.665000",
          "185301.665000",
          "185301.665000",
          "185341.618000",
          "185341.618000",
          "185341.618000",
          "185341.618000",
          "185341.634000",
          "185341.634000",
          "185341.634000",
          "185341.634000",
          "185341.649000",
          "185341.649000",
          "185341.649000",
          "185341.649000",
          "185341.649000",
          "185341.649000",
          "185341.649000",
          "185341.665000",
          "185341.665000",
          "185341.665000",
          "185341.665000",
          "185341.665000",
          "185421.618000",
          "185421.618000",
          "185421.634000",
          "185421.634000",
          "185421.634000",
          "185421.634000",
          "185421.634000",
          "185421.649000",
          "185421.649000",
          "185421.649000",
          "185421.649000",
          "185421.649000",
          "185421.649000",
          "185421.649000",
          "185421.665000",
          "185421.665000",
          "185421.665000",
          "185421.665000",
          "185421.665000",
          "185421.681000",
          "185501.618000",
          "185501.634000",
          "185501.634000",
          "185501.634000",
          "185501.634000",
          "185501.634000",
          "185501.649000",
          "185501.649000",
          "185501.649000",
          "185501.649000",
          "185501.649000",
          "185501.649000",
          "185501.665000",
          "185501.665000",
          "185501.665000",
          "185501.665000",
          "185501.665000",
          "185501.681000",
          "185501.681000",
          "185501.681000",
          "185541.618000",
          "185541.618000",
          "185541.618000",
          "185541.618000",
          "185541.634000",
          "185541.634000",
          "185541.634000",
          "185541.634000",
          "185541.634000",
          "185541.649000",
          "185541.649000",
          "185541.649000",
          "185541.649000",
          "185541.665000",
          "185541.665000",
          "185541.665000",
          "185541.665000",
          "185541.665000",
          "185541.665000",
          "185541.665000",
          "185621.618000",
          "185621.618000",
          "185621.618000",
          "185621.618000",
          "185621.634000",
          "185621.634000",
          "185621.634000",
          "185621.634000",
          "185621.649000",
          "185621.649000",
          "185621.649000",
          "185621.649000",
          "185621.649000",
          "185621.649000",
          "185621.665000",
          "185621.665000",
          "185621.665000",
          "185621.665000",
          "185621.665000",
          "185621.665000",
          "185701.618000",
          "185701.618000",
          "185701.618000",
          "185701.618000",
          "185701.634000",
          "185701.634000",
          "185701.634000",
          "185701.634000",
          "185701.634000",
          "185701.634000",
          "185701.649000",
          "185701.649000",
          "185701.649000",
          "185701.649000",
          "185701.649000",
          "185701.649000",
          "185701.649000",
          "185701.665000",
          "185701.665000",
          "185701.665000",
          "185707.009000",
          "185707.009000",
          "185707.009000"
        ],
        "InstanceCreationTime": [
          "185221.634000",
          "185221.634000",
          "185221.634000",
          "185221.634000",
          "185221.634000",
          "185221.634000",
          "185221.649000",
          "185221.649000",
          "185221.665000",
          "185221.665000",
          "185221.665000",
          "185221.665000",
          "185221.665000",
          "185221.665000",
          "185221.665000",
          "185221.681000",
          "185221.681000",
          "185221.681000",
          "185221.681000",
          "185221.681000",
          "185221.681000",
          "185301.618000",
          "185301.618000",
          "185301.618000",
          "185301.618000",
          "185301.634000",
          "185301.634000",
          "185301.634000",
          "185301.634000",
          "185301.634000",
          "185301.634000",
          "185301.634000",
          "185301.649000",
          "185301.649000",
          "185301.649000",
          "185301.649000",
          "185301.649000",
          "185301.649000",
          "185301.665000",
          "185301.665000",
          "185301.665000",
          "185341.618000",
          "185341.618000",
          "185341.618000",
          "185341.618000",
          "185341.634000",
          "185341.634000",
          "185341.634000",
          "185341.634000",
          "185341.649000",
          "185341.649000",
          "185341.649000",
          "185341.649000",
          "185341.649000",
          "185341.649000",
          "185341.649000",
          "185341.665000",
          "185341.665000",
          "185341.665000",
          "185341.665000",
          "185341.665000",
          "185421.618000",
          "185421.618000",
          "185421.634000",
          "185421.634000",
          "185421.634000",
          "185421.634000",
          "185421.634000",
          "185421.649000",
          "185421.649000",
          "185421.649000",
          "185421.649000",
          "185421.649000",
          "185421.649000",
          "185421.649000",
          "185421.665000",
          "185421.665000",
          "185421.665000",
          "185421.665000",
          "185421.665000",
          "185421.681000",
          "185501.618000",
          "185501.634000",
          "185501.634000",
          "185501.634000",
          "185501.634000",
          "185501.634000",
          "185501.649000",
          "185501.649000",
          "185501.649000",
          "185501.649000",
          "185501.649000",
          "185501.649000",
          "185501.665000",
          "185501.665000",
          "185501.665000",
          "185501.665000",
          "185501.665000",
          "185501.681000",
          "185501.681000",
          "185501.681000",
          "185541.618000",
          "185541.618000",
          "185541.618000",
          "185541.618000",
          "185541.634000",
          "185541.634000",
          "185541.634000",
          "185541.634000",
          "185541.634000",
          "185541.649000",
          "185541.649000",
          "185541.649000",
          "185541.649000",
          "185541.665000",
          "185541.665000",
          "185541.665000",
          "185541.665000",
          "185541.665000",
          "185541.665000",
          "185541.665000",
          "185621.618000",
          "185621.618000",
          "185621.618000",
          "185621.618000",
          "185621.634000",
          "185621.634000",
          "185621.634000",
          "185621.634000",
          "185621.649000",
          "185621.649000",
          "185621.649000",
          "185621.649000",
          "185621.649000",
          "185621.649000",
          "185621.665000",
          "185621.665000",
          "185621.665000",
          "185621.665000",
          "185621.665000",
          "185621.665000",
          "185701.618000",
          "185701.618000",
          "185701.618000",
          "185701.618000",
          "185701.634000",
          "185701.634000",
          "185701.634000",
          "185701.634000",
          "185701.634000",
          "185701.634000",
          "185701.649000",
          "185701.649000",
          "185701.649000",
          "185701.649000",
          "185701.649000",
          "185701.649000",
          "185701.649000",
          "185701.665000",
          "185701.665000",
          "185701.665000",
          "185707.009000",
          "185707.009000",
          "185707.009000"
        ],
        "InstanceNumber": [
          1,
          2,
          3,
          4,
          5,
          6,
          7,
          8,
          9,
          10,
          11,
          12,
          13,
          14,
          15,
          16,
          17,
          18,
          19,
          20,
          21,
          22,
          23,
          24,
          25,
          26,
          27,
          28,
          29,
          30,
          31,
          32,
          33,
          34,
          35,
          36,
          37,
          38,
          39,
          40,
          41,
          42,
          43,
          44,
          45,
          46,
          47,
          48,
          49,
          50,
          51,
          52,
          53,
          54,
          55,
          56,
          57,
          58,
          59,
          60,
          61,
          62,
          63,
          64,
          65,
          66,
          67,
          68,
          69,
          70,
          71,
          72,
          73,
          74,
          75,
          76,
          77,
          78,
          79,
          80,
          81,
          82,
          83,
          84,
          85,
          86,
          87,
          88,
          89,
          90,
          91,
          92,
          93,
          94,
          95,
          96,
          97,
          98,
          99,
          100,
          101,
          102,
          103,
          104,
          105,
          106,
          107,
          108,
          109,
          110,
          111,
          112,
          113,
          114,
          115,
          116,
          117,
          118,
          119,
          120,
          121,
          122,
          123,
          124,
          125,
          126,
          127,
          128,
          129,
          130,
          131,
          132,
          133,
          134,
          135,
          136,
          137,
          138,
          139,
          140,
          141,
          142,
          143,
          144,
          145,
          146,
          147,
          148,
          149,
          150,
          151,
          152,
          153,
          154,
          155,
          156,
          157,
          158,
          159,
          160,
          161,
          162,
          163,
          164
        ],
        "WindowCenter": [
          1071.0,
          1067.0,
          1068.0,
          1067.0,
          1069.0,
          1069.0,
          1067.0,
          1069.0,
          1069.0,
          1070.0,
          1069.0,
          1069.0,
          1070.0,
          1069.0,
          1068.0,
          1069.0,
          1070.0,
          1068.0,
          1069.0,
          1070.0,
          1068.0,
          1069.0,
          1067.0,
          1067.0,
          1071.0,
          1072.0,
          1069.0,
          1067.0,
          1068.0,
          1070.0,
          1068.0,
          1069.0,
          1069.0,
          1070.0,
          1070.0,
          1068.0,
          1070.0,
          1071.0,
          1070.0,
          1070.0,
          1067.0,
          1071.0,
          1074.0,
          1072.0,
          1069.0,
          1071.0,
          1074.0,
          1073.0,
          1071.0,
          1070.0,
          1072.0,
          1071.0,
          1070.0,
          1070.0,
          1070.0,
          1072.0,
          1071.0,
          1070.0,
          1071.0,
          1072.0,
          1071.0,
          1070.0,
          1068.0,
          1070.0,
          1070.0,
          1070.0,
          1070.0,
          1071.0,
          1071.0,
          1072.0,
          1073.0,
          1073.0,
          1073.0,
          1073.0,
          1072.0,
          1072.0,
          1069.0,
          1072.0,
          1072.0,
          1072.0,
          1071.0,
          1070.0,
          1069.0,
          1070.0,
          1073.0,
          1071.0,
          1072.0,
          1074.0,
          1071.0,
          1073.0,
          1073.0,
          1071.0,
          1073.0,
          1069.0,
          1073.0,
          1073.0,
          1071.0,
          1070.0,
          1070.0,
          1072.0,
          1071.0,
          1071.0,
          1070.0,
          1071.0,
          1071.0,
          1072.0,
          1071.0,
          1070.0,
          1074.0,
          1074.0,
          1071.0,
          1069.0,
          1072.0,
          1074.0,
          1072.0,
          1070.0,
          1070.0,
          1073.0,
          1071.0,
          1069.0,
          1068.0,
          1070.0,
          1069.0,
          1072.0,
          1070.0,
          1069.0,
          1071.0,
          1070.0,
          1074.0,
          1073.0,
          1072.0,
          1070.0,
          1070.0,
          1073.0,
          1070.0,
          1073.0,
          1070.0,
          1070.0,
          1069.0,
          1069.0,
          1069.0,
          1067.0,
          1071.0,
          1071.0,
          1071.0,
          1071.0,
          1069.0,
          1073.0,
          1071.0,
          1073.0,
          1071.0,
          1070.0,
          1071.0,
          1070.0,
          1070.0,
          1071.0,
          1070.0,
          1072.0,
          1071.0,
          1071.0,
          1073.0,
          1074.0,
          1075.0,
          1077.0
        ],
        "WindowWidth": [
          2878.0,
          2869.0,
          2876.0,
          2867.0,
          2876.0,
          2871.0,
          2869.0,
          2884.0,
          2878.0,
          2882.0,
          2882.0,
          2887.0,
          2881.0,
          2883.0,
          2879.0,
          2885.0,
          2881.0,
          2875.0,
          2883.0,
          2880.0,
          2875.0,
          2879.0,
          2870.0,
          2873.0,
          2887.0,
          2882.0,
          2873.0,
          2863.0,
          2875.0,
          2879.0,
          2872.0,
          2883.0,
          2879.0,
          2879.0,
          2874.0,
          2874.0,
          2884.0,
          2885.0,
          2886.0,
          2875.0,
          2870.0,
          2888.0,
          2893.0,
          2882.0,
          2871.0,
          2886.0,
          2898.0,
          2888.0,
          2882.0,
          2873.0,
          2885.0,
          2878.0,
          2880.0,
          2880.0,
          2876.0,
          2885.0,
          2882.0,
          2874.0,
          2876.0,
          2884.0,
          2877.0,
          2880.0,
          2872.0,
          2882.0,
          2881.0,
          2877.0,
          2884.0,
          2882.0,
          2886.0,
          2890.0,
          2890.0,
          2889.0,
          2887.0,
          2889.0,
          2886.0,
          2887.0,
          2879.0,
          2891.0,
          2885.0,
          2884.0,
          2881.0,
          2880.0,
