{
  "aor": 0.0013303048780487804,
  "aqi": 0.004556304268292683,
  "bids_meta": {
    "AcquisitionMatrixPE": 96,
    "AcquisitionNumber": 1,
    "AcquisitionTime": "19:05:6.810000",
    "BandwidthPerPixelPhaseEncode": 52.083,
    "BaseResolution": 96,
    "BodyPartExamined": "HEAD",
    "ConversionSoftware": "dcm2niix",
    "ConversionSoftwareVersion": "v1.0.20180622 GCC6.3.0",
    "DerivedVendorReportedEchoSpacing": 0.000600004,
    "DeviceSerialNumber": "18926",
    "DwellTime": 2.6e-06,
    "EchoTime": 0.025,
    "EffectiveEchoSpacing": 0.000200001,
    "FlipAngle": 50,
    "ImageOrientationPatientDICOM": [
      0.999992,
      0.00067012,
      0.00404905,
      2.11009e-10,
      0.98658,
      -0.16328
    ],
    "ImageType": [
      "ORIGINAL",
      "PRIMARY",
      "M",
      "ND",
      "ECHO",
      "00",
      "MOSAIC"
    ],
    "InPlanePhaseEncodingDirectionDICOM": "ROW",
    "InstitutionName": "NIMH",
    "InstitutionalDepartmentName": "Department",
    "MRAcquisitionType": "2D",
    "MagneticFieldStrength": 6.98,
    "Manufacturer": "Siemens",
    "ManufacturersModelName": "Investigational_Device_7T",
    "Modality": "MR",
    "ParallelReductionFactorInPlane": 3,
    "PartialFourier": 1,
    "PatientPosition": "HFS",
    "PercentPhaseFOV": 100,
    "PhaseEncodingDirection": "i",
    "PhaseEncodingSteps": 94,
    "PhaseResolution": 1,
    "PixelBandwidth": 2003,
    "ProcedureStepDescription": "MRI_Procedure_Limited",
    "ProtocolName": "NIH_EPI_2.0iso_TR2_Run05",
    "PulseSequenceDetails": "%CustomerSeq%_inati_nih_epi",
    "ReceiveCoilName": "32Ch_Head_7T",
    "ReconMatrixPE": 96,
    "RepetitionTime": 2,
    "SAR": 0.0856902,
    "ScanningSequence": "EP",
    "SequenceName": "epfid2d1_96",
    "SequenceVariant": "SK",
    "SeriesDescription": "NIH_EPI_2.0iso_TR2_Run05",
    "SeriesNumber": 10,
    "ShimSetting": [
      -93,
      133,
      1370,
      2277,
      -119,
      -62,
      1168,
      -283
    ],
    "SliceThickness": 2,
    "SliceTiming": [
      1.005,
      0,
      1.04,
      0.0375,
      1.0775,
      0.075,
      1.115,
      0.1125,
      1.1525,
      0.15,
      1.19,
      0.185,
      1.2275,
      0.2225,
      1.265,
      0.26,
      1.3025,
      0.2975,
      1.3375,
      0.335,
      1.375,
      0.3725,
      1.4125,
      0.41,
      1.45,
      0.445,
      1.4875,
      0.4825,
      1.525,
      0.52,
      1.5625,
      0.5575,
      1.5975,
      0.595,
      1.635,
      0.6325,
      1.6725,
      0.67,
      1.71,
      0.7075,
      1.7475,
      0.7425,
      1.785,
      0.78,
      1.8225,
      0.8175,
      1.86,
      0.855,
      1.895,
      0.8925,
      1.9325,
      0.93,
      1.97,
      0.9675
    ],
    "SoftwareVersions": "syngo_MR_B17",
    "SpacingBetweenSlices": 2,
    "StationName": "FMRIFD7T",
    "TaskName": "FullFovNoAttentionTask",
    "TotalReadoutTime": 0.0190001,
    "TxRefAmp": 292,
    "dataset": "ds001555",
    "dcmmeta_affine": [
      [
        -1.9999831914901733,
        4.2201880878778297e-10,
        0.008208253420889378,
        95.76705169677734
      ],
      [
        -0.0013402394251897931,
        1.973159670829773,
        -0.32655632495880127,
        -61.768768310546875
      ],
      [
        0.008098097518086433,
        0.32655906677246094,
        1.9731431007385254,
        -34.148643493652344
      ],
      [
        0.0,
        0.0,
        0.0,
        1.0
      ]
    ],
    "dcmmeta_reorient_transform": [
      [
        0.0,
        -1.0,
        0.0,
        95.0
      ],
      [
        1.0,
        0.0,
        0.0,
        0.0
      ],
      [
        0.0,
        0.0,
        1.0,
        0.0
      ],
      [
        0.0,
        0.0,
        0.0,
        1.0
      ]
    ],
    "dcmmeta_shape": [
      96,
      96,
      54,
      164
    ],
    "dcmmeta_slice_dim": 2,
    "dcmmeta_version": 0.6,
    "global": {
      "const": {
        "AcquisitionMatrix": [
          0,
          96,
          96,
          0
        ],
        "Allergies": "No Known Allergies",
        "AngioFlag": "N",
        "BitsAllocated": 16,
        "BitsStored": 12,
        "BodyPartExamined": "HEAD",
        "Columns": 768,
        "EchoNumbers": 1,
        "EchoTime": 25.0,
        "EchoTrainLength": 1,
        "FlipAngle": 50.0,
        "HighBit": 11,
        "ImageOrientationPatient": [
          0.99999157803662,
          0.00067011969073,
          0.00404904870684,
          2.110094e-10,
          0.98657984636313,
          -0.1632795356133
        ],
        "ImagePositionPatient": [
          -767.761392775,
          -789.11337897392,
          103.87735661079
        ],
        "ImageType": [
          "ORIGINAL",
          "PRIMARY",
          "M",
          "ND",
          "ECHO_00",
          "MOSAIC"
        ],
        "ImagedNucleus": "1H",
        "ImagingFrequency": 297.204916,
        "InPlanePhaseEncodingDirection": "ROW",
        "LargestImagePixelValue": 4095,
        "MRAcquisitionType": "2D",
        "MagneticFieldStrength": 6.98,
        "Manufacturer": "SIEMENS",
        "ManufacturerModelName": "Investigational_Device_7T",
        "Modality": "MR",
        "NumberOfAverages": 1.0,
        "NumberOfPhaseEncodingSteps": 94,
        "PercentPhaseFieldOfView": 100.0,
        "PercentSampling": 100.0,
        "PerformedProcedureStepStartTime": "181540.759000",
        "PhotometricInterpretation": "MONOCHROME2",
        "PixelBandwidth": 2003.0,
        "PixelRepresentation": 0,
        "PixelSpacing": [
          2.0,
          2.0
        ],
        "PositionReferenceIndicator": "",
        "ProcedureCodeSequence": [
          {
            "CodeMeaning": "MRI Procedure Limited",
            "CodeValue": "MI01491",
            "CodingSchemeDesignator": "USA Standard",
            "ContextIdentifier": "4000107252"
          }
        ],
        "ProtocolName": "NIH_EPI_2.0iso_TR2_Run05",
        "ReferencedStudySequence": [
          {
            "ReferencedSOPClassUID": "1.2.840.10008.3.1.2.3.1",
            "ReferencedSOPInstanceUID": "1.2.840.113564.9.1.2723958737.61.2.5000073014"
          }
        ],
        "RepetitionTime": 2000.0,
        "RequestedProcedureCodeSequence": [
          {
            "CodeMeaning": "MRI Procedure Limited",
            "CodeValue": "MI01491",
            "CodingSchemeDesignator": "USA Standard",
            "ContextIdentifier": "4000107252"
          }
        ],
        "RequestingService": "MHED",
        "Rows": 768,
        "SAR": 0.08569017315284,
        "SamplesPerPixel": 1,
        "ScanningSequence": "EP",
        "SequenceName": "epfid2d1_96",
        "SequenceVariant": "SK",
        "SeriesDescription": "NIH_EPI_2.0iso_TR2_Run05",
        "SeriesNumber": 10,
        "SliceLocation": -23.21154749564,
        "SliceThickness": 2.0,
        "SmallestImagePixelValue": 0,
        "SoftwareVersions": "syngo MR B17",
        "SpacingBetweenSlices": 1.9999999799801,
        "TransmitCoilName": "32Ch_Head_7T",
        "VariableFlipAngleFlag": "N",
        "WindowCenterWidthExplanation": "Algo1",
        "dBdt": 0.0
      },
      "slices": {}
    },
    "modality": "bold",
    "run_id": 7,
    "session_id": "01",
    "subject_id": "002",
    "task_id": "FullFovNoAttentionTask",
    "time": {
      "samples": {
        "AcquisitionNumber": [
          1,
          2,
          3,
          4,
          5,
          6,
          7,
          8,
          9,
          10,
          11,
          12,
          13,
          14,
          15,
          16,
          17,
          18,
          19,
          20,
          21,
          22,
          23,
          24,
          25,
          26,
          27,
          28,
          29,
          30,
          31,
          32,
          33,
          34,
          35,
          36,
          37,
          38,
          39,
          40,
          41,
          42,
          43,
          44,
          45,
          46,
          47,
          48,
          49,
          50,
          51,
          52,
          53,
          54,
          55,
          56,
          57,
          58,
          59,
          60,
          61,
          62,
          63,
          64,
          65,
          66,
          67,
          68,
          69,
          70,
          71,
          72,
          73,
          74,
          75,
          76,
          77,
          78,
          79,
          80,
          81,
          82,
          83,
          84,
          85,
          86,
          87,
          88,
          89,
          90,
          91,
          92,
          93,
          94,
          95,
          96,
          97,
          98,
          99,
          100,
          101,
          102,
          103,
          104,
          105,
          106,
          107,
          108,
          109,
          110,
          111,
          112,
          113,
          114,
          115,
          116,
          117,
          118,
          119,
          120,
          121,
          122,
          123,
          124,
          125,
          126,
          127,
          128,
          129,
          130,
          131,
          132,
          133,
          134,
          135,
          136,
          137,
          138,
          139,
          140,
          141,
          142,
          143,
          144,
          145,
          146,
          147,
          148,
          149,
          150,
          151,
          152,
          153,
          154,
          155,
          156,
          157,
          158,
          159,
          160,
          161,
          162,
          163,
          164
        ],
        "AcquisitionTime": [
          "190506.810000",
          "190510.825000",
          "190512.832500",
          "190514.840000",
          "190516.850000",
          "190518.857500",
          "190520.865000",
          "190522.872500",
          "190524.880000",
          "190526.890000",
          "190528.897500",
          "190530.905000",
          "190532.912500",
          "190534.922500",
          "190536.930000",
          "190538.937500",
          "190540.945000",
          "190542.952500",
          "190544.962500",
          "190546.970000",
          "190548.977500",
          "190550.985000",
          "190552.992500",
          "190555.002500",
          "190557.010000",
          "190559.017500",
          "190601.025000",
          "190603.035000",
          "190605.042500",
          "190607.050000",
          "190609.057500",
          "190611.065000",
          "190613.075000",
          "190615.082500",
          "190617.090000",
          "190619.097500",
          "190621.105000",
          "190623.115000",
          "190625.122500",
          "190627.130000",
          "190629.137500",
          "190631.145000",
          "190633.155000",
          "190635.162500",
          "190637.170000",
          "190639.177500",
          "190641.187500",
          "190643.195000",
          "190645.202500",
          "190647.210000",
          "190649.217500",
          "190651.227500",
          "190653.235000",
          "190655.242500",
          "190657.250000",
          "190659.257500",
          "190701.267500",
          "190703.275000",
          "190705.282500",
          "190707.290000",
          "190709.300000",
          "190711.307500",
          "190713.315000",
          "190715.322500",
          "190717.330000",
          "190719.340000",
          "190721.347500",
          "190723.355000",
          "190725.362500",
          "190727.370000",
          "190729.380000",
          "190731.387500",
          "190733.395000",
          "190735.402500",
          "190737.412500",
          "190739.420000",
          "190741.427500",
          "190743.435000",
          "190745.442500",
          "190747.452500",
          "190749.460000",
          "190751.467500",
          "190753.475000",
          "190755.482500",
          "190757.492500",
          "190759.500000",
          "190801.507500",
          "190803.515000",
          "190805.522500",
          "190807.532500",
          "190809.540000",
          "190811.547500",
          "190813.555000",
          "190815.565000",
          "190817.572500",
          "190819.580000",
          "190821.587500",
          "190823.595000",
          "190825.605000",
          "190827.612500",
          "190829.620000",
          "190831.627500",
          "190833.635000",
          "190835.645000",
          "190837.652500",
          "190839.660000",
          "190841.667500",
          "190843.677500",
          "190845.685000",
          "190847.692500",
          "190849.700000",
          "190851.707500",
          "190853.717500",
          "190855.725000",
          "190857.732500",
          "190859.740000",
          "190901.747500",
          "190903.757500",
          "190905.765000",
          "190907.772500",
          "190909.780000",
          "190911.790000",
          "190913.797500",
          "190915.805000",
          "190917.812500",
          "190919.820000",
          "190921.830000",
          "190923.837500",
          "190925.845000",
          "190927.852500",
          "190929.860000",
          "190931.870000",
          "190933.877500",
          "190935.885000",
          "190937.892500",
          "190939.900000",
          "190941.910000",
          "190943.917500",
          "190945.925000",
          "190947.932500",
          "190949.942500",
          "190951.950000",
          "190953.957500",
          "190955.965000",
          "190957.972500",
          "190959.982500",
          "191001.990000",
          "191003.997500",
          "191006.005000",
          "191008.012500",
          "191010.022500",
          "191012.030000",
          "191014.037500",
          "191016.045000",
          "191018.055000",
          "191020.062500",
          "191022.070000",
          "191024.077500",
          "191026.085000",
          "191028.095000",
          "191030.102500",
          "191032.110000",
          "191034.117500",
          "191036.125000"
        ],
        "ContentTime": [
          "190553.493000",
          "190553.493000",
          "190553.493000",
          "190553.493000",
          "190553.493000",
          "190553.509000",
          "190553.509000",
          "190553.509000",
          "190553.509000",
          "190553.509000",
          "190553.509000",
          "190553.509000",
          "190553.524000",
          "190553.524000",
          "190553.524000",
          "190553.524000",
          "190553.524000",
          "190553.524000",
          "190553.524000",
          "190553.540000",
          "190553.540000",
          "190553.540000",
          "190633.477000",
          "190633.477000",
          "190633.493000",
          "190633.493000",
          "190633.493000",
          "190633.493000",
          "190633.493000",
          "190633.509000",
          "190633.509000",
          "190633.509000",
          "190633.509000",
          "190633.509000",
          "190633.524000",
          "190633.524000",
          "190633.524000",
          "190633.524000",
          "190633.524000",
          "190633.540000",
          "190633.540000",
          "190633.540000",
          "190713.477000",
          "190713.477000",
          "190713.477000",
          "190713.493000",
          "190713.493000",
          "190713.493000",
          "190713.509000",
          "190713.509000",
          "190713.509000",
          "190713.509000",
          "190713.509000",
          "190713.524000",
          "190713.524000",
          "190713.524000",
          "190713.524000",
          "190713.524000",
          "190713.524000",
          "190713.540000",
          "190713.540000",
          "190713.540000",
          "190753.477000",
          "190753.477000",
          "190753.477000",
          "190753.493000",
          "190753.493000",
          "190753.493000",
          "190753.493000",
          "190753.493000",
          "190753.493000",
          "190753.493000",
          "190753.509000",
          "190753.509000",
          "190753.509000",
          "190753.509000",
          "190753.509000",
          "190753.509000",
          "190753.524000",
          "190753.524000",
          "190753.524000",
          "190753.524000",
          "190833.477000",
          "190833.477000",
          "190833.493000",
          "190833.493000",
          "190833.493000",
          "190833.493000",
          "190833.493000",
          "190833.493000",
          "190833.493000",
          "190833.509000",
          "190833.509000",
          "190833.509000",
          "190833.509000",
          "190833.509000",
          "190833.509000",
          "190833.524000",
          "190833.524000",
          "190833.524000",
          "190833.524000",
          "190833.524000",
          "190913.477000",
          "190913.477000",
          "190913.493000",
          "190913.493000",
          "190913.493000",
          "190913.493000",
          "190913.493000",
          "190913.493000",
          "190913.493000",
          "190913.509000",
          "190913.509000",
          "190913.509000",
          "190913.509000",
          "190913.524000",
          "190913.524000",
          "190913.524000",
          "190913.524000",
          "190913.524000",
          "190913.524000",
          "190913.540000",
          "190953.477000",
          "190953.477000",
          "190953.477000",
          "190953.477000",
          "190953.477000",
          "190953.493000",
          "190953.493000",
          "190953.509000",
          "190953.509000",
          "190953.509000",
          "190953.509000",
          "190953.509000",
          "190953.524000",
          "190953.524000",
          "190953.524000",
          "190953.524000",
          "190953.524000",
          "190953.524000",
          "190953.524000",
          "190953.540000",
          "191033.477000",
          "191033.477000",
          "191033.477000",
          "191033.493000",
          "191033.493000",
          "191033.493000",
          "191033.493000",
          "191033.493000",
          "191033.493000",
          "191033.509000",
          "191033.509000",
          "191033.524000",
          "191033.524000",
          "191033.524000",
          "191033.524000",
          "191033.524000",
          "191033.540000",
          "191033.540000",
          "191033.540000",
          "191033.540000",
          "191036.727000",
          "191036.727000"
        ],
        "InstanceCreationTime": [
          "190553.493000",
          "190553.493000",
          "190553.493000",
          "190553.493000",
          "190553.493000",
          "190553.509000",
          "190553.509000",
          "190553.509000",
          "190553.509000",
          "190553.509000",
          "190553.509000",
          "190553.509000",
          "190553.524000",
          "190553.524000",
          "190553.524000",
          "190553.524000",
          "190553.524000",
          "190553.524000",
          "190553.524000",
          "190553.540000",
          "190553.540000",
          "190553.540000",
          "190633.477000",
          "190633.477000",
          "190633.493000",
          "190633.493000",
          "190633.493000",
          "190633.493000",
          "190633.493000",
          "190633.509000",
          "190633.509000",
          "190633.509000",
          "190633.509000",
          "190633.509000",
          "190633.524000",
          "190633.524000",
          "190633.524000",
          "190633.524000",
          "190633.524000",
          "190633.540000",
          "190633.540000",
          "190633.540000",
          "190713.477000",
          "190713.477000",
          "190713.477000",
          "190713.493000",
          "190713.493000",
          "190713.493000",
          "190713.509000",
          "190713.509000",
          "190713.509000",
          "190713.509000",
          "190713.509000",
          "190713.524000",
          "190713.524000",
          "190713.524000",
          "190713.524000",
          "190713.524000",
          "190713.524000",
          "190713.540000",
          "190713.540000",
          "190713.540000",
          "190753.477000",
          "190753.477000",
          "190753.477000",
          "190753.493000",
          "190753.493000",
          "190753.493000",
          "190753.493000",
          "190753.493000",
          "190753.493000",
          "190753.493000",
          "190753.509000",
          "190753.509000",
          "190753.509000",
          "190753.509000",
          "190753.509000",
          "190753.509000",
          "190753.524000",
          "190753.524000",
          "190753.524000",
          "190753.524000",
          "190833.477000",
          "190833.477000",
          "190833.493000",
          "190833.493000",
          "190833.493000",
          "190833.493000",
          "190833.493000",
          "190833.493000",
          "190833.493000",
          "190833.509000",
          "190833.509000",
          "190833.509000",
          "190833.509000",
          "190833.509000",
          "190833.509000",
          "190833.524000",
          "190833.524000",
          "190833.524000",
          "190833.524000",
          "190833.524000",
          "190913.477000",
          "190913.477000",
          "190913.493000",
          "190913.493000",
          "190913.493000",
          "190913.493000",
          "190913.493000",
          "190913.493000",
          "190913.493000",
          "190913.509000",
          "190913.509000",
          "190913.509000",
          "190913.509000",
          "190913.524000",
          "190913.524000",
          "190913.524000",
          "190913.524000",
          "190913.524000",
          "190913.524000",
          "190913.540000",
          "190953.477000",
          "190953.477000",
          "190953.477000",
          "190953.477000",
          "190953.477000",
          "190953.493000",
          "190953.493000",
          "190953.509000",
          "190953.509000",
          "190953.509000",
          "190953.509000",
          "190953.509000",
          "190953.524000",
          "190953.524000",
          "190953.524000",
          "190953.524000",
          "190953.524000",
          "190953.524000",
          "190953.524000",
          "190953.540000",
          "191033.477000",
          "191033.477000",
          "191033.477000",
          "191033.493000",
          "191033.493000",
          "191033.493000",
          "191033.493000",
          "191033.493000",
          "191033.493000",
          "191033.509000",
          "191033.509000",
          "191033.524000",
          "191033.524000",
          "191033.524000",
          "191033.524000",
          "191033.524000",
          "191033.540000",
          "191033.540000",
          "191033.540000",
          "191033.540000",
          "191036.727000",
          "191036.727000"
        ],
        "InstanceNumber": [
          1,
          2,
          3,
          4,
          5,
          6,
          7,
          8,
          9,
          10,
          11,
          12,
          13,
          14,
          15,
          16,
          17,
          18,
          19,
          20,
          21,
          22,
          23,
          24,
          25,
          26,
          27,
          28,
          29,
          30,
          31,
          32,
          33,
          34,
          35,
          36,
          37,
          38,
          39,
          40,
          41,
          42,
          43,
          44,
          45,
          46,
          47,
          48,
          49,
          50,
          51,
          52,
          53,
          54,
          55,
          56,
          57,
          58,
          59,
          60,
          61,
          62,
          63,
          64,
          65,
          66,
          67,
          68,
          69,
          70,
          71,
          72,
          73,
          74,
          75,
          76,
          77,
          78,
          79,
          80,
          81,
          82,
          83,
          84,
          85,
          86,
          87,
          88,
          89,
          90,
          91,
          92,
          93,
          94,
          95,
          96,
          97,
          98,
          99,
          100,
          101,
          102,
          103,
          104,
          105,
          106,
          107,
          108,
          109,
          110,
          111,
          112,
          113,
          114,
          115,
          116,
          117,
          118,
          119,
          120,
          121,
          122,
          123,
          124,
          125,
          126,
          127,
          128,
          129,
          130,
          131,
          132,
          133,
          134,
          135,
          136,
          137,
          138,
          139,
          140,
          141,
          142,
          143,
          144,
          145,
          146,
          147,
          148,
          149,
          150,
          151,
          152,
          153,
          154,
          155,
          156,
          157,
          158,
          159,
          160,
          161,
          162,
          163,
          164
        ],
        "WindowCenter": [
          1070.0,
          1069.0,
          1069.0,
          1070.0,
          1069.0,
          1069.0,
          1069.0,
          1071.0,
          1069.0,
          1069.0,
          1070.0,
          1070.0,
          1070.0,
          1068.0,
          1068.0,
          1070.0,
          1070.0,
          1069.0,
          1069.0,
          1068.0,
          1071.0,
          1069.0,
          1070.0,
          1070.0,
          1068.0,
          1070.0,
          1069.0,
          1069.0,
          1069.0,
          1068.0,
          1069.0,
          1068.0,
          1068.0,
          1068.0,
          1069.0,
          1070.0,
          1068.0,
          1068.0,
          1067.0,
          1069.0,
          1070.0,
          1068.0,
          1067.0,
          1067.0,
          1070.0,
          1069.0,
          1069.0,
          1069.0,
          1071.0,
          1070.0,
          1068.0,
          1070.0,
          1068.0,
          1069.0,
          1070.0,
          1069.0,
          1072.0,
          1071.0,
          1070.0,
          1070.0,
          1069.0,
          1071.0,
          1071.0,
          1071.0,
          1072.0,
          1069.0,
          1070.0,
          1067.0,
          1067.0,
          1068.0,
          1068.0,
          1069.0,
          1068.0,
          1069.0,
          1069.0,
          1071.0,
          1071.0,
          1071.0,
          1071.0,
          1070.0,
          1070.0,
          1069.0,
          1072.0,
          1070.0,
          1069.0,
          1068.0,
          1071.0,
          1070.0,
          1070.0,
          1069.0,
          1070.0,
          1070.0,
          1071.0,
          1071.0,
          1071.0,
          1071.0,
          1070.0,
          1071.0,
          1070.0,
          1071.0,
          1071.0,
          1072.0,
          1070.0,
          1070.0,
          1069.0,
          1070.0,
          1070.0,
          1069.0,
          1070.0,
          1069.0,
          1071.0,
          1069.0,
          1070.0,
          1071.0,
          1069.0,
          1072.0,
          1070.0,
          1072.0,
          1072.0,
          1072.0,
          1069.0,
          1069.0,
          1068.0,
          1070.0,
          1071.0,
          1069.0,
          1072.0,
          1073.0,
          1071.0,
          1070.0,
          1072.0,
          1072.0,
          1072.0,
          1070.0,
          1070.0,
          1070.0,
          1069.0,
          1069.0,
          1069.0,
          1068.0,
          1069.0,
          1068.0,
          1068.0,
          1069.0,
          1068.0,
          1070.0,
          1069.0,
          1068.0,
          1071.0,
          1071.0,
          1069.0,
          1071.0,
          1071.0,
          1072.0,
          1071.0,
          1070.0,
          1071.0,
          1071.0,
          1073.0,
          1072.0,
          1072.0,
          1074.0,
          1073.0,
          1075.0
        ],
        "WindowWidth": [
          2872.0,
          2870.0,
          2875.0,
          2874.0,
          2871.0,
          2873.0,
          2870.0,
          2882.0,
          2874.0,
          2875.0,
          2879.0,
          2880.0,
          2876.0,
          2878.0,
          2872.0,
          2878.0,
          2877.0,
          2879.0,
          2874.0,
          2870.0,
          2881.0,
          2871.0,
          2878.0,
          2869.0,
          2862.0,
          2879.0,
          2873.0,
          2875.0,
          2867.0,
          2868.0,
          2872.0,
          2863.0,
          2870.0,
          2866.0,
          2876.0,
          2872.0,
          2866.0,
          2869.0,
          2870.0,
          2883.0,
          2877.0,
          2871.0,
          2867.0,
          2871.0,
          2878.0,
          2869.0,
          2877.0,
          2877.0,
          2880.0,
          2873.0,
          2869.0,
          2876.0,
          2867.0,
          2874.0,
          2873.0,
          2869.0,
          2883.0,
          2878.0,
          2878.0,
          2873.0,
          2865.0,
          2881.0,
          2873.0,
          2879.0,
          2878.0,
          2873.0,
          2875.0,
          2864.0,
          2874.0,
          2876.0,
          2872.0,
          2875.0,
          2870.0,
          2878.0,
          2874.0,
          2886.0,
          2879.0,
          2883.0,
          2878.0,
          2875.0,
          2876.0,
          2874.0,
