{
  "aor": 0.0012184756097560975,
  "aqi": 0.004940525731707317,
  "bids_meta": {
    "AcquisitionMatrixPE": 96,
    "AcquisitionNumber": 1,
    "AcquisitionTime": "18:44:42.985000",
    "BandwidthPerPixelPhaseEncode": 52.083,
    "BaseResolution": 96,
    "BodyPartExamined": "HEAD",
    "ConversionSoftware": "dcm2niix",
    "ConversionSoftwareVersion": "v1.0.20180622 GCC6.3.0",
    "DerivedVendorReportedEchoSpacing": 0.000600004,
    "DeviceSerialNumber": "18926",
    "DwellTime": 2.6e-06,
    "EchoTime": 0.025,
    "EffectiveEchoSpacing": 0.000200001,
    "FlipAngle": 50,
    "ImageOrientationPatientDICOM": [
      0.999992,
      0.00067012,
      0.00404905,
      2.11009e-10,
      0.98658,
      -0.16328
    ],
    "ImageType": [
      "ORIGINAL",
      "PRIMARY",
      "M",
      "ND",
      "ECHO",
      "00",
      "MOSAIC"
    ],
    "InPlanePhaseEncodingDirectionDICOM": "ROW",
    "InstitutionName": "NIMH",
    "InstitutionalDepartmentName": "Department",
    "MRAcquisitionType": "2D",
    "MagneticFieldStrength": 6.98,
    "Manufacturer": "Siemens",
    "ManufacturersModelName": "Investigational_Device_7T",
    "Modality": "MR",
    "ParallelReductionFactorInPlane": 3,
    "PartialFourier": 1,
    "PatientPosition": "HFS",
    "PercentPhaseFOV": 100,
    "PhaseEncodingDirection": "i",
    "PhaseEncodingSteps": 94,
    "PhaseResolution": 1,
    "PixelBandwidth": 2003,
    "ProcedureStepDescription": "MRI_Procedure_Limited",
    "ProtocolName": "NIH_EPI_2.0iso_TR2_Run02",
    "PulseSequenceDetails": "%CustomerSeq%_inati_nih_epi",
    "ReceiveCoilName": "32Ch_Head_7T",
    "ReconMatrixPE": 96,
    "RepetitionTime": 2,
    "SAR": 0.0856902,
    "ScanningSequence": "EP",
    "SequenceName": "epfid2d1_96",
    "SequenceVariant": "SK",
    "SeriesDescription": "NIH_EPI_2.0iso_TR2_Run02",
    "SeriesNumber": 7,
    "ShimSetting": [
      -93,
      133,
      1370,
      2277,
      -119,
      -62,
      1168,
      -283
    ],
    "SliceThickness": 2,
    "SliceTiming": [
      1.005,
      0,
      1.0425,
      0.0375,
      1.08,
      0.075,
      1.115,
      0.1125,
      1.1525,
      0.15,
      1.19,
      0.1875,
      1.2275,
      0.225,
      1.265,
      0.26,
      1.3025,
      0.2975,
      1.34,
      0.335,
      1.3775,
      0.3725,
      1.4125,
      0.41,
      1.45,
      0.4475,
      1.4875,
      0.485,
      1.525,
      0.5225,
      1.5625,
      0.5575,
      1.6,
      0.595,
      1.6375,
      0.6325,
      1.675,
      0.67,
      1.71,
      0.7075,
      1.7475,
      0.745,
      1.785,
      0.7825,
      1.8225,
      0.8175,
      1.86,
      0.855,
      1.8975,
      0.8925,
      1.935,
      0.93,
      1.97,
      0.9675
    ],
    "SoftwareVersions": "syngo_MR_B17",
    "SpacingBetweenSlices": 2,
    "StationName": "FMRIFD7T",
    "TaskName": "FullFovNoAttentionTask",
    "TotalReadoutTime": 0.0190001,
    "TxRefAmp": 292,
    "dataset": "ds001555",
    "dcmmeta_affine": [
      [
        -1.9999831914901733,
        4.2201880878778297e-10,
        0.008208253420889378,
        95.76705169677734
      ],
      [
        -0.0013402394251897931,
        1.973159670829773,
        -0.32655632495880127,
        -61.768768310546875
      ],
      [
        0.008098097518086433,
        0.32655906677246094,
        1.9731431007385254,
        -34.148643493652344
      ],
      [
        0.0,
        0.0,
        0.0,
        1.0
      ]
    ],
    "dcmmeta_reorient_transform": [
      [
        0.0,
        -1.0,
        0.0,
        95.0
      ],
      [
        1.0,
        0.0,
        0.0,
        0.0
      ],
      [
        0.0,
        0.0,
        1.0,
        0.0
      ],
      [
        0.0,
        0.0,
        0.0,
        1.0
      ]
    ],
    "dcmmeta_shape": [
      96,
      96,
      54,
      164
    ],
    "dcmmeta_slice_dim": 2,
    "dcmmeta_version": 0.6,
    "global": {
      "const": {
        "AcquisitionMatrix": [
          0,
          96,
          96,
          0
        ],
        "Allergies": "No Known Allergies",
        "AngioFlag": "N",
        "BitsAllocated": 16,
        "BitsStored": 12,
        "BodyPartExamined": "HEAD",
        "Columns": 768,
        "EchoNumbers": 1,
        "EchoTime": 25.0,
        "EchoTrainLength": 1,
        "FlipAngle": 50.0,
        "HighBit": 11,
        "ImageOrientationPatient": [
          0.99999157803662,
          0.00067011969073,
          0.00404904870684,
          2.110094e-10,
          0.98657984636313,
          -0.1632795356133
        ],
        "ImagePositionPatient": [
          -767.761392775,
          -789.11337897392,
          103.87735661079
        ],
        "ImageType": [
          "ORIGINAL",
          "PRIMARY",
          "M",
          "ND",
          "ECHO_00",
          "MOSAIC"
        ],
        "ImagedNucleus": "1H",
        "ImagingFrequency": 297.204844,
        "InPlanePhaseEncodingDirection": "ROW",
        "LargestImagePixelValue": 4095,
        "MRAcquisitionType": "2D",
        "MagneticFieldStrength": 6.98,
        "Manufacturer": "SIEMENS",
        "ManufacturerModelName": "Investigational_Device_7T",
        "Modality": "MR",
        "NumberOfAverages": 1.0,
        "NumberOfPhaseEncodingSteps": 94,
        "PercentPhaseFieldOfView": 100.0,
        "PercentSampling": 100.0,
        "PerformedProcedureStepStartTime": "181540.759000",
        "PhotometricInterpretation": "MONOCHROME2",
        "PixelBandwidth": 2003.0,
        "PixelRepresentation": 0,
        "PixelSpacing": [
          2.0,
          2.0
        ],
        "PositionReferenceIndicator": "",
        "ProcedureCodeSequence": [
          {
            "CodeMeaning": "MRI Procedure Limited",
            "CodeValue": "MI01491",
            "CodingSchemeDesignator": "USA Standard",
            "ContextIdentifier": "4000107252"
          }
        ],
        "ProtocolName": "NIH_EPI_2.0iso_TR2_Run02",
        "ReferencedStudySequence": [
          {
            "ReferencedSOPClassUID": "1.2.840.10008.3.1.2.3.1",
            "ReferencedSOPInstanceUID": "1.2.840.113564.9.1.2723958737.61.2.5000073014"
          }
        ],
        "RepetitionTime": 2000.0,
        "RequestedProcedureCodeSequence": [
          {
            "CodeMeaning": "MRI Procedure Limited",
            "CodeValue": "MI01491",
            "CodingSchemeDesignator": "USA Standard",
            "ContextIdentifier": "4000107252"
          }
        ],
        "RequestingService": "MHED",
        "Rows": 768,
        "SAR": 0.08569017315284,
        "SamplesPerPixel": 1,
        "ScanningSequence": "EP",
        "SequenceName": "epfid2d1_96",
        "SequenceVariant": "SK",
        "SeriesDescription": "NIH_EPI_2.0iso_TR2_Run02",
        "SeriesNumber": 7,
        "SliceLocation": -23.21154749564,
        "SliceThickness": 2.0,
        "SmallestImagePixelValue": 0,
        "SoftwareVersions": "syngo MR B17",
        "SpacingBetweenSlices": 1.9999999799801,
        "TransmitCoilName": "32Ch_Head_7T",
        "VariableFlipAngleFlag": "N",
        "WindowCenterWidthExplanation": "Algo1",
        "dBdt": 0.0
      },
      "slices": {}
    },
    "modality": "bold",
    "run_id": 4,
    "session_id": "01",
    "subject_id": "002",
    "task_id": "FullFovNoAttentionTask",
    "time": {
      "samples": {
        "AcquisitionNumber": [
          1,
          2,
          3,
          4,
          5,
          6,
          7,
          8,
          9,
          10,
          11,
          12,
          13,
          14,
          15,
          16,
          17,
          18,
          19,
          20,
          21,
          22,
          23,
          24,
          25,
          26,
          27,
          28,
          29,
          30,
          31,
          32,
          33,
          34,
          35,
          36,
          37,
          38,
          39,
          40,
          41,
          42,
          43,
          44,
          45,
          46,
          47,
          48,
          49,
          50,
          51,
          52,
          53,
          54,
          55,
          56,
          57,
          58,
          59,
          60,
          61,
          62,
          63,
          64,
          65,
          66,
          67,
          68,
          69,
          70,
          71,
          72,
          73,
          74,
          75,
          76,
          77,
          78,
          79,
          80,
          81,
          82,
          83,
          84,
          85,
          86,
          87,
          88,
          89,
          90,
          91,
          92,
          93,
          94,
          95,
          96,
          97,
          98,
          99,
          100,
          101,
          102,
          103,
          104,
          105,
          106,
          107,
          108,
          109,
          110,
          111,
          112,
          113,
          114,
          115,
          116,
          117,
          118,
          119,
          120,
          121,
          122,
          123,
          124,
          125,
          126,
          127,
          128,
          129,
          130,
          131,
          132,
          133,
          134,
          135,
          136,
          137,
          138,
          139,
          140,
          141,
          142,
          143,
          144,
          145,
          146,
          147,
          148,
          149,
          150,
          151,
          152,
          153,
          154,
          155,
          156,
          157,
          158,
          159,
          160,
          161,
          162,
          163,
          164
        ],
        "AcquisitionTime": [
          "184442.985000",
          "184447.000000",
          "184449.007500",
          "184451.017500",
          "184453.025000",
          "184455.032500",
          "184457.040000",
          "184459.050000",
          "184501.057500",
          "184503.065000",
          "184505.072500",
          "184507.080000",
          "184509.090000",
          "184511.097500",
          "184513.105000",
          "184515.112500",
          "184517.120000",
          "184519.130000",
          "184521.137500",
          "184523.145000",
          "184525.152500",
          "184527.162500",
          "184529.170000",
          "184531.177500",
          "184533.185000",
          "184535.192500",
          "184537.202500",
          "184539.210000",
          "184541.217500",
          "184543.225000",
          "184545.232500",
          "184547.242500",
          "184549.250000",
          "184551.257500",
          "184553.265000",
          "184555.272500",
          "184557.282500",
          "184559.290000",
          "184601.297500",
          "184603.305000",
          "184605.315000",
          "184607.322500",
          "184609.330000",
          "184611.337500",
          "184613.345000",
          "184615.355000",
          "184617.362500",
          "184619.370000",
          "184621.377500",
          "184623.385000",
          "184625.395000",
          "184627.402500",
          "184629.410000",
          "184631.417500",
          "184633.427500",
          "184635.435000",
          "184637.442500",
          "184639.450000",
          "184641.457500",
          "184643.467500",
          "184645.475000",
          "184647.482500",
          "184649.490000",
          "184651.497500",
          "184653.507500",
          "184655.515000",
          "184657.522500",
          "184659.530000",
          "184701.540000",
          "184703.547500",
          "184705.555000",
          "184707.562500",
          "184709.570000",
          "184711.580000",
          "184713.587500",
          "184715.595000",
          "184717.602500",
          "184719.610000",
          "184721.620000",
          "184723.627500",
          "184725.635000",
          "184727.642500",
          "184729.652500",
          "184731.660000",
          "184733.667500",
          "184735.675000",
          "184737.682500",
          "184739.692500",
          "184741.700000",
          "184743.707500",
          "184745.715000",
          "184747.722500",
          "184749.732500",
          "184751.740000",
          "184753.747500",
          "184755.755000",
          "184757.762500",
          "184759.772500",
          "184801.780000",
          "184803.787500",
          "184805.795000",
          "184807.805000",
          "184809.812500",
          "184811.820000",
          "184813.827500",
          "184815.835000",
          "184817.845000",
          "184819.852500",
          "184821.860000",
          "184823.867500",
          "184825.875000",
          "184827.885000",
          "184829.892500",
          "184831.900000",
          "184833.907500",
          "184835.917500",
          "184837.925000",
          "184839.932500",
          "184841.940000",
          "184843.947500",
          "184845.957500",
          "184847.965000",
          "184849.972500",
          "184851.980000",
          "184853.987500",
          "184855.997500",
          "184858.005000",
          "184900.012500",
          "184902.020000",
          "184904.030000",
          "184906.037500",
          "184908.045000",
          "184910.052500",
          "184912.060000",
          "184914.070000",
          "184916.077500",
          "184918.085000",
          "184920.092500",
          "184922.100000",
          "184924.110000",
          "184926.117500",
          "184928.125000",
          "184930.132500",
          "184932.140000",
          "184934.150000",
          "184936.157500",
          "184938.165000",
          "184940.172500",
          "184942.182500",
          "184944.190000",
          "184946.197500",
          "184948.205000",
          "184950.212500",
          "184952.222500",
          "184954.230000",
          "184956.237500",
          "184958.245000",
          "185000.252500",
          "185002.262500",
          "185004.270000",
          "185006.277500",
          "185008.285000",
          "185010.295000",
          "185012.302500"
        ],
        "ContentTime": [
          "184533.493000",
          "184533.493000",
          "184533.493000",
          "184533.493000",
          "184533.493000",
          "184533.493000",
          "184533.509000",
          "184533.509000",
          "184533.509000",
          "184533.509000",
          "184533.509000",
          "184533.509000",
          "184533.509000",
          "184533.524000",
          "184533.524000",
          "184533.524000",
          "184533.524000",
          "184533.524000",
          "184533.540000",
          "184533.540000",
          "184533.540000",
          "184533.540000",
          "184533.540000",
          "184613.477000",
          "184613.477000",
          "184613.477000",
          "184613.477000",
          "184613.477000",
          "184613.493000",
          "184613.493000",
          "184613.493000",
          "184613.493000",
          "184613.493000",
          "184613.509000",
          "184613.509000",
          "184613.509000",
          "184613.509000",
          "184613.509000",
          "184613.509000",
          "184613.524000",
          "184613.524000",
          "184613.524000",
          "184613.524000",
          "184653.477000",
          "184653.477000",
          "184653.477000",
          "184653.477000",
          "184653.493000",
          "184653.493000",
          "184653.493000",
          "184653.493000",
          "184653.493000",
          "184653.493000",
          "184653.509000",
          "184653.509000",
          "184653.509000",
          "184653.509000",
          "184653.509000",
          "184653.509000",
          "184653.524000",
          "184653.524000",
          "184653.524000",
          "184653.524000",
          "184733.477000",
          "184733.477000",
          "184733.477000",
          "184733.477000",
          "184733.477000",
          "184733.493000",
          "184733.493000",
          "184733.493000",
          "184733.493000",
          "184733.493000",
          "184733.493000",
          "184733.493000",
          "184733.509000",
          "184733.509000",
          "184733.509000",
          "184733.509000",
          "184733.509000",
          "184733.509000",
          "184733.524000",
          "184733.524000",
          "184813.477000",
          "184813.477000",
          "184813.477000",
          "184813.477000",
          "184813.477000",
          "184813.493000",
          "184813.493000",
          "184813.493000",
          "184813.493000",
          "184813.493000",
          "184813.509000",
          "184813.509000",
          "184813.509000",
          "184813.509000",
          "184813.509000",
          "184813.524000",
          "184813.524000",
          "184813.524000",
          "184813.540000",
          "184813.540000",
          "184853.477000",
          "184853.477000",
          "184853.477000",
          "184853.493000",
          "184853.493000",
          "184853.493000",
          "184853.493000",
          "184853.493000",
          "184853.493000",
          "184853.509000",
          "184853.509000",
          "184853.509000",
          "184853.509000",
          "184853.509000",
          "184853.524000",
          "184853.524000",
          "184853.524000",
          "184853.524000",
          "184853.524000",
          "184853.524000",
          "184933.477000",
          "184933.477000",
          "184933.477000",
          "184933.477000",
          "184933.477000",
          "184933.493000",
          "184933.493000",
          "184933.493000",
          "184933.493000",
          "184933.493000",
          "184933.493000",
          "184933.509000",
          "184933.509000",
          "184933.509000",
          "184933.509000",
          "184933.524000",
          "184933.524000",
          "184933.524000",
          "184933.524000",
          "184933.524000",
          "184953.477000",
          "184953.477000",
          "184953.477000",
          "184953.477000",
          "184953.493000",
          "184953.493000",
          "184953.493000",
          "184953.493000",
          "184953.509000",
          "184953.509000",
          "185013.806000",
          "185013.806000",
          "185013.806000",
          "185013.821000",
          "185013.821000",
          "185013.821000",
          "185013.821000",
          "185013.837000",
          "185013.837000",
          "185013.837000",
          "185013.837000"
        ],
        "InstanceCreationTime": [
          "184533.493000",
          "184533.493000",
          "184533.493000",
          "184533.493000",
          "184533.493000",
          "184533.493000",
          "184533.509000",
          "184533.509000",
          "184533.509000",
          "184533.509000",
          "184533.509000",
          "184533.509000",
          "184533.509000",
          "184533.524000",
          "184533.524000",
          "184533.524000",
          "184533.524000",
          "184533.524000",
          "184533.540000",
          "184533.540000",
          "184533.540000",
          "184533.540000",
          "184533.540000",
          "184613.477000",
          "184613.477000",
          "184613.477000",
          "184613.477000",
          "184613.477000",
          "184613.493000",
          "184613.493000",
          "184613.493000",
          "184613.493000",
          "184613.493000",
          "184613.509000",
          "184613.509000",
          "184613.509000",
          "184613.509000",
          "184613.509000",
          "184613.509000",
          "184613.524000",
          "184613.524000",
          "184613.524000",
          "184613.524000",
          "184653.477000",
          "184653.477000",
          "184653.477000",
          "184653.477000",
          "184653.493000",
          "184653.493000",
          "184653.493000",
          "184653.493000",
          "184653.493000",
          "184653.493000",
          "184653.509000",
          "184653.509000",
          "184653.509000",
          "184653.509000",
          "184653.509000",
          "184653.509000",
          "184653.524000",
          "184653.524000",
          "184653.524000",
          "184653.524000",
          "184733.477000",
          "184733.477000",
          "184733.477000",
          "184733.477000",
          "184733.477000",
          "184733.493000",
          "184733.493000",
          "184733.493000",
          "184733.493000",
          "184733.493000",
          "184733.493000",
          "184733.493000",
          "184733.509000",
          "184733.509000",
          "184733.509000",
          "184733.509000",
          "184733.509000",
          "184733.509000",
          "184733.524000",
          "184733.524000",
          "184813.477000",
          "184813.477000",
          "184813.477000",
          "184813.477000",
          "184813.477000",
          "184813.493000",
          "184813.493000",
          "184813.493000",
          "184813.493000",
          "184813.493000",
          "184813.509000",
          "184813.509000",
          "184813.509000",
          "184813.509000",
          "184813.509000",
          "184813.524000",
          "184813.524000",
          "184813.524000",
          "184813.540000",
          "184813.540000",
          "184853.477000",
          "184853.477000",
          "184853.477000",
          "184853.493000",
          "184853.493000",
          "184853.493000",
          "184853.493000",
          "184853.493000",
          "184853.493000",
          "184853.509000",
          "184853.509000",
          "184853.509000",
          "184853.509000",
          "184853.509000",
          "184853.524000",
          "184853.524000",
          "184853.524000",
          "184853.524000",
          "184853.524000",
          "184853.524000",
          "184933.477000",
          "184933.477000",
          "184933.477000",
          "184933.477000",
          "184933.477000",
          "184933.493000",
          "184933.493000",
          "184933.493000",
          "184933.493000",
          "184933.493000",
          "184933.493000",
          "184933.509000",
          "184933.509000",
          "184933.509000",
          "184933.509000",
          "184933.524000",
          "184933.524000",
          "184933.524000",
          "184933.524000",
          "184933.524000",
          "184953.477000",
          "184953.477000",
          "184953.477000",
          "184953.477000",
          "184953.493000",
          "184953.493000",
          "184953.493000",
          "184953.493000",
          "184953.509000",
          "184953.509000",
          "185013.806000",
          "185013.806000",
          "185013.806000",
          "185013.821000",
          "185013.821000",
          "185013.821000",
          "185013.821000",
          "185013.837000",
          "185013.837000",
          "185013.837000",
          "185013.837000"
        ],
        "InstanceNumber": [
          1,
          2,
          3,
          4,
          5,
          6,
          7,
          8,
          9,
          10,
          11,
          12,
          13,
          14,
          15,
          16,
          17,
          18,
          19,
          20,
          21,
          22,
          23,
          24,
          25,
          26,
          27,
          28,
          29,
          30,
          31,
          32,
          33,
          34,
          35,
          36,
          37,
          38,
          39,
          40,
          41,
          42,
          43,
          44,
          45,
          46,
          47,
          48,
          49,
          50,
          51,
          52,
          53,
          54,
          55,
          56,
          57,
          58,
          59,
          60,
          61,
          62,
          63,
          64,
          65,
          66,
          67,
          68,
          69,
          70,
          71,
          72,
          73,
          74,
          75,
          76,
          77,
          78,
          79,
          80,
          81,
          82,
          83,
          84,
          85,
          86,
          87,
          88,
          89,
          90,
          91,
          92,
          93,
          94,
          95,
          96,
          97,
          98,
          99,
          100,
          101,
          102,
          103,
          104,
          105,
          106,
          107,
          108,
          109,
          110,
          111,
          112,
          113,
          114,
          115,
          116,
          117,
          118,
          119,
          120,
          121,
          122,
          123,
          124,
          125,
          126,
          127,
          128,
          129,
          130,
          131,
          132,
          133,
          134,
          135,
          136,
          137,
          138,
          139,
          140,
          141,
          142,
          143,
          144,
          145,
          146,
          147,
          148,
          149,
          150,
          151,
          152,
          153,
          154,
          155,
          156,
          157,
          158,
          159,
          160,
          161,
          162,
          163,
          164
        ],
        "WindowCenter": [
          1070.0,
          1071.0,
          1071.0,
          1072.0,
          1070.0,
          1070.0,
          1070.0,
          1070.0,
          1070.0,
          1071.0,
          1070.0,
          1071.0,
          1070.0,
          1070.0,
          1069.0,
          1069.0,
          1068.0,
          1070.0,
          1071.0,
          1070.0,
          1069.0,
          1071.0,
          1070.0,
          1070.0,
          1070.0,
          1073.0,
          1071.0,
          1071.0,
          1070.0,
          1070.0,
          1071.0,
          1071.0,
          1068.0,
          1068.0,
          1067.0,
          1067.0,
          1067.0,
          1070.0,
          1069.0,
          1068.0,
          1069.0,
          1069.0,
          1068.0,
          1070.0,
          1071.0,
          1070.0,
          1068.0,
          1067.0,
          1072.0,
          1072.0,
          1072.0,
          1070.0,
          1071.0,
          1070.0,
          1069.0,
          1067.0,
          1067.0,
          1070.0,
          1072.0,
          1072.0,
          1070.0,
          1071.0,
          1070.0,
          1071.0,
          1071.0,
          1070.0,
          1069.0,
          1069.0,
          1070.0,
          1069.0,
          1068.0,
          1066.0,
          1070.0,
          1072.0,
          1070.0,
          1069.0,
          1067.0,
          1069.0,
          1071.0,
          1071.0,
          1071.0,
          1070.0,
          1071.0,
          1069.0,
          1071.0,
          1072.0,
          1070.0,
          1069.0,
          1071.0,
          1072.0,
          1070.0,
          1070.0,
          1070.0,
          1069.0,
          1070.0,
          1069.0,
          1070.0,
          1069.0,
          1071.0,
          1070.0,
          1072.0,
          1071.0,
          1068.0,
          1072.0,
          1072.0,
          1070.0,
          1069.0,
          1071.0,
          1073.0,
          1073.0,
          1074.0,
          1073.0,
          1072.0,
          1070.0,
          1071.0,
          1071.0,
          1072.0,
          1069.0,
          1070.0,
          1070.0,
          1073.0,
          1072.0,
          1072.0,
          1071.0,
          1071.0,
          1071.0,
          1070.0,
          1069.0,
          1071.0,
          1071.0,
          1069.0,
          1068.0,
          1071.0,
          1072.0,
          1071.0,
          1069.0,
          1070.0,
          1073.0,
          1073.0,
          1071.0,
          1071.0,
          1070.0,
          1070.0,
          1071.0,
          1072.0,
          1072.0,
          1070.0,
          1069.0,
          1071.0,
          1072.0,
          1072.0,
          1069.0,
          1070.0,
          1068.0,
          1069.0,
          1070.0,
          1071.0,
          1070.0,
          1071.0,
          1072.0,
          1072.0,
          1071.0,
          1074.0,
          1075.0
        ],
        "WindowWidth": [
          2882.0,
          2884.0,
          2887.0,
          2884.0,
          2879.0,
          2883.0,
          2882.0,
          2886.0,
          2883.0,
          2894.0,
          2887.0,
          2894.0,
          2883.0,
          2888.0,
          2886.0,
          2883.0,
          2879.0,
          2890.0,
          2890.0,
          2884.0,
          2882.0,
          2883.0,
          2887.0,
          2886.0,
          2891.0,
          2898.0,
          2894.0,
          2889.0,
          2885.0,
          2882.0,
          2889.0,
          2885.0,
          2875.0,
          2878.0,
          2874.0,
          2872.0,
          2876.0,
          2885.0,
          2884.0,
          2880.0,
          2888.0,
          2882.0,
          2880.0,
          2891.0,
          2894.0,
          2883.0,
          2877.0,
          2877.0,
          2894.0,
          2887.0,
          2888.0,
          2879.0,
          2886.0,
          2889.0,
          2881.0,
          2873.0,
          2875.0,
          2887.0,
          2896.0,
          2894.0,
          2880.0,
          2884.0,
          2880.0,
          2890.0,
          2894.0,
          2884.0,
          2877.0,
          2884.0,
          2889.0,
          2878.0,
          2876.0,
          2872.0,
          2889.0,
          2896.0,
          2888.0,
          2879.0,
          2875.0,
          2887.0,
          2888.0,
          2888.0,
          2884.0,
          2885.0,
