{
  "aor": 0.002698048780487805,
  "aqi": 0.00582857018292683,
  "bids_meta": {
    "AcquisitionMatrixPE": 96,
    "AcquisitionNumber": 1,
    "AcquisitionTime": "16:52:51.332500",
    "BandwidthPerPixelPhaseEncode": 52.083,
    "BaseResolution": 96,
    "BodyPartExamined": "HEAD",
    "ConversionSoftware": "dcm2niix",
    "ConversionSoftwareVersion": "v1.0.20180622 GCC6.3.0",
    "DerivedVendorReportedEchoSpacing": 0.000600004,
    "DeviceSerialNumber": "18926",
    "DwellTime": 2.6e-06,
    "EchoTime": 0.025,
    "EffectiveEchoSpacing": 0.000200001,
    "FlipAngle": 50,
    "ImageOrientationPatientDICOM": [
      1,
      -2.05103e-10,
      0,
      2.05103e-10,
      1,
      0
    ],
    "ImageType": [
      "ORIGINAL",
      "PRIMARY",
      "M",
      "ND",
      "ECHO",
      "00",
      "MOSAIC"
    ],
    "InPlanePhaseEncodingDirectionDICOM": "ROW",
    "InstitutionName": "NIMH",
    "InstitutionalDepartmentName": "Department",
    "MRAcquisitionType": "2D",
    "MagneticFieldStrength": 6.98,
    "Manufacturer": "Siemens",
    "ManufacturersModelName": "Investigational_Device_7T",
    "Modality": "MR",
    "ParallelReductionFactorInPlane": 3,
    "PartialFourier": 1,
    "PatientPosition": "HFS",
    "PercentPhaseFOV": 100,
    "PhaseEncodingDirection": "i",
    "PhaseEncodingSteps": 94,
    "PhaseResolution": 1,
    "PixelBandwidth": 2003,
    "ProcedureStepDescription": "MRI_Procedure_Limited",
    "ProtocolName": "NIH_EPI_2.0iso_TR2_Run05",
    "PulseSequenceDetails": "%CustomerSeq%_inati_nih_epi",
    "ReceiveCoilName": "32Ch_Head_7T",
    "ReconMatrixPE": 96,
    "RepetitionTime": 2,
    "SAR": 0.0954305,
    "ScanningSequence": "EP",
    "SequenceName": "epfid2d1_96",
    "SequenceVariant": "SK",
    "SeriesDescription": "NIH_EPI_2.0iso_TR2_Run05",
    "SeriesNumber": 10,
    "ShimSetting": [
      -35,
      -33,
      1383,
      2505,
      128,
      80,
      532,
      -309
    ],
    "SliceThickness": 2,
    "SliceTiming": [
      1.005,
      0,
      1.0425,
      0.0375,
      1.08,
      0.075,
      1.115,
      0.1125,
      1.1525,
      0.15,
      1.19,
      0.1875,
      1.2275,
      0.225,
      1.265,
      0.26,
      1.3025,
      0.2975,
      1.34,
      0.335,
      1.3775,
      0.3725,
      1.4125,
      0.41,
      1.45,
      0.4475,
      1.4875,
      0.485,
      1.525,
      0.52,
      1.5625,
      0.5575,
      1.6,
      0.595,
      1.6375,
      0.6325,
      1.675,
      0.67,
      1.71,
      0.7075,
      1.7475,
      0.745,
      1.785,
      0.7825,
      1.8225,
      0.8175,
      1.86,
      0.855,
      1.8975,
      0.8925,
      1.935,
      0.93,
      1.97,
      0.9675
    ],
    "SoftwareVersions": "syngo_MR_B17",
    "SpacingBetweenSlices": 2,
    "StationName": "FMRIFD7T",
    "TaskName": "FullFovAttentionTask",
    "TotalReadoutTime": 0.0190001,
    "TxRefAmp": 302,
    "dataset": "ds001555",
    "dcmmeta_affine": [
      [
        -2.0,
        4.1020681296188855e-10,
        0.0,
        95.98538208007812
      ],
      [
        4.1020681296188855e-10,
        2.0,
        0.0,
        -68.37484741210938
      ],
      [
        0.0,
        0.0,
        1.9999998807907104,
        -17.773967742919922
      ],
      [
        0.0,
        0.0,
        0.0,
        1.0
      ]
    ],
    "dcmmeta_reorient_transform": [
      [
        0.0,
        -1.0,
        0.0,
        95.0
      ],
      [
        1.0,
        0.0,
        0.0,
        0.0
      ],
      [
        0.0,
        0.0,
        1.0,
        0.0
      ],
      [
        0.0,
        0.0,
        0.0,
        1.0
      ]
    ],
    "dcmmeta_shape": [
      96,
      96,
      54,
      164
    ],
    "dcmmeta_slice_dim": 2,
    "dcmmeta_version": 0.6,
    "global": {
      "const": {
        "AcquisitionMatrix": [
          0,
          96,
          96,
          0
        ],
        "Allergies": "No Known Allergies",
        "AngioFlag": "N",
        "BitsAllocated": 16,
        "BitsStored": 12,
        "BodyPartExamined": "HEAD",
        "Columns": 768,
        "EchoNumbers": 1,
        "EchoTime": 25.0,
        "EchoTrainLength": 1,
        "FlipAngle": 50.0,
        "HighBit": 11,
        "ImageOrientationPatient": [
          1.0,
          -2.051034e-10,
          0.0,
          2.051034e-10,
          1.0,
          0.0
        ],
        "ImagePositionPatient": [
          -767.98537955166,
          -793.62515624507,
          -17.77396774292
        ],
        "ImageType": [
          "ORIGINAL",
          "PRIMARY",
          "M",
          "ND",
          "ECHO_00",
          "MOSAIC"
        ],
        "ImagedNucleus": "1H",
        "ImagingFrequency": 297.204826,
        "InPlanePhaseEncodingDirection": "ROW",
        "LargestImagePixelValue": 4095,
        "MRAcquisitionType": "2D",
        "MagneticFieldStrength": 6.98,
        "Manufacturer": "SIEMENS",
        "ManufacturerModelName": "Investigational_Device_7T",
        "Modality": "MR",
        "NumberOfAverages": 1.0,
        "NumberOfPhaseEncodingSteps": 94,
        "PercentPhaseFieldOfView": 100.0,
        "PercentSampling": 100.0,
        "PerformedProcedureStepStartTime": "155403.794000",
        "PhotometricInterpretation": "MONOCHROME2",
        "PixelBandwidth": 2003.0,
        "PixelRepresentation": 0,
        "PixelSpacing": [
          2.0,
          2.0
        ],
        "PositionReferenceIndicator": "",
        "ProcedureCodeSequence": [
          {
            "CodeMeaning": "MRI Procedure Limited",
            "CodeValue": "MI01491",
            "CodingSchemeDesignator": "USA Standard",
            "ContextIdentifier": "4000131003"
          }
        ],
        "ProtocolName": "NIH_EPI_2.0iso_TR2_Run05",
        "ReferencedStudySequence": [
          {
            "ReferencedSOPClassUID": "1.2.840.10008.3.1.2.3.1",
            "ReferencedSOPInstanceUID": "1.2.840.113564.9.1.2787814059.53.2.5000096846"
          }
        ],
        "RepetitionTime": 2000.0,
        "RequestedProcedureCodeSequence": [
          {
            "CodeMeaning": "MRI Procedure Limited",
            "CodeValue": "MI01491",
            "CodingSchemeDesignator": "USA Standard",
            "ContextIdentifier": "4000131003"
          }
        ],
        "RequestingService": "NIMH Molecular Imaging Branch",
        "Rows": 768,
        "SAR": 0.0954305326624,
        "SamplesPerPixel": 1,
        "ScanningSequence": "EP",
        "SequenceName": "epfid2d1_96",
        "SequenceVariant": "SK",
        "SeriesDescription": "NIH_EPI_2.0iso_TR2_Run05",
        "SeriesNumber": 10,
        "SliceLocation": -17.77396774292,
        "SliceThickness": 2.0,
        "SmallestImagePixelValue": 0,
        "SoftwareVersions": "syngo MR B17",
        "SpacingBetweenSlices": 1.9999999280246,
        "TransmitCoilName": "32Ch_Head_7T",
        "VariableFlipAngleFlag": "N",
        "WindowCenterWidthExplanation": "Algo1",
        "dBdt": 0.0
      },
      "slices": {}
    },
    "modality": "bold",
    "run_id": 7,
    "session_id": "08",
    "subject_id": "003",
    "task_id": "FullFovAttentionTask",
    "time": {
      "samples": {
        "AcquisitionNumber": [
          1,
          2,
          3,
          4,
          5,
          6,
          7,
          8,
          9,
          10,
          11,
          12,
          13,
          14,
          15,
          16,
          17,
          18,
          19,
          20,
          21,
          22,
          23,
          24,
          25,
          26,
          27,
          28,
          29,
          30,
          31,
          32,
          33,
          34,
          35,
          36,
          37,
          38,
          39,
          40,
          41,
          42,
          43,
          44,
          45,
          46,
          47,
          48,
          49,
          50,
          51,
          52,
          53,
          54,
          55,
          56,
          57,
          58,
          59,
          60,
          61,
          62,
          63,
          64,
          65,
          66,
          67,
          68,
          69,
          70,
          71,
          72,
          73,
          74,
          75,
          76,
          77,
          78,
          79,
          80,
          81,
          82,
          83,
          84,
          85,
          86,
          87,
          88,
          89,
          90,
          91,
          92,
          93,
          94,
          95,
          96,
          97,
          98,
          99,
          100,
          101,
          102,
          103,
          104,
          105,
          106,
          107,
          108,
          109,
          110,
          111,
          112,
          113,
          114,
          115,
          116,
          117,
          118,
          119,
          120,
          121,
          122,
          123,
          124,
          125,
          126,
          127,
          128,
          129,
          130,
          131,
          132,
          133,
          134,
          135,
          136,
          137,
          138,
          139,
          140,
          141,
          142,
          143,
          144,
          145,
          146,
          147,
          148,
          149,
          150,
          151,
          152,
          153,
          154,
          155,
          156,
          157,
          158,
          159,
          160,
          161,
          162,
          163,
          164
        ],
        "AcquisitionTime": [
          "165251.332500",
          "165255.347500",
          "165257.355000",
          "165259.365000",
          "165301.372500",
          "165303.380000",
          "165305.387500",
          "165307.397500",
          "165309.405000",
          "165311.412500",
          "165313.420000",
          "165315.427500",
          "165317.437500",
          "165319.445000",
          "165321.452500",
          "165323.460000",
          "165325.467500",
          "165327.477500",
          "165329.485000",
          "165331.492500",
          "165333.500000",
          "165335.510000",
          "165337.517500",
          "165339.525000",
          "165341.532500",
          "165343.540000",
          "165345.550000",
          "165347.557500",
          "165349.565000",
          "165351.572500",
          "165353.580000",
          "165355.590000",
          "165357.597500",
          "165359.605000",
          "165401.612500",
          "165403.620000",
          "165405.630000",
          "165407.637500",
          "165409.645000",
          "165411.652500",
          "165413.662500",
          "165415.670000",
          "165417.677500",
          "165419.685000",
          "165421.692500",
          "165423.702500",
          "165425.710000",
          "165427.717500",
          "165429.725000",
          "165431.732500",
          "165433.742500",
          "165435.750000",
          "165437.757500",
          "165439.765000",
          "165441.775000",
          "165443.782500",
          "165445.790000",
          "165447.797500",
          "165449.805000",
          "165451.815000",
          "165453.822500",
          "165455.830000",
          "165457.837500",
          "165459.845000",
          "165501.855000",
          "165503.862500",
          "165505.870000",
          "165507.877500",
          "165509.887500",
          "165511.895000",
          "165513.902500",
          "165515.910000",
          "165517.917500",
          "165519.927500",
          "165521.935000",
          "165523.942500",
          "165525.950000",
          "165527.957500",
          "165529.967500",
          "165531.975000",
          "165533.982500",
          "165535.990000",
          "165537.997500",
          "165540.007500",
          "165542.015000",
          "165544.022500",
          "165546.030000",
          "165548.040000",
          "165550.047500",
          "165552.055000",
          "165554.062500",
          "165556.070000",
          "165558.080000",
          "165600.087500",
          "165602.095000",
          "165604.102500",
          "165606.110000",
          "165608.120000",
          "165610.127500",
          "165612.135000",
          "165614.142500",
          "165616.152500",
          "165618.160000",
          "165620.167500",
          "165622.175000",
          "165624.182500",
          "165626.192500",
          "165628.200000",
          "165630.207500",
          "165632.215000",
          "165634.222500",
          "165636.232500",
          "165638.240000",
          "165640.247500",
          "165642.255000",
          "165644.265000",
          "165646.272500",
          "165648.280000",
          "165650.287500",
          "165652.295000",
          "165654.305000",
          "165656.312500",
          "165658.320000",
          "165700.327500",
          "165702.335000",
          "165704.345000",
          "165706.352500",
          "165708.360000",
          "165710.367500",
          "165712.375000",
          "165714.385000",
          "165716.392500",
          "165718.400000",
          "165720.407500",
          "165722.417500",
          "165724.425000",
          "165726.432500",
          "165728.440000",
          "165730.447500",
          "165732.457500",
          "165734.465000",
          "165736.472500",
          "165738.480000",
          "165740.487500",
          "165742.497500",
          "165744.505000",
          "165746.512500",
          "165748.520000",
          "165750.530000",
          "165752.537500",
          "165754.545000",
          "165756.552500",
          "165758.560000",
          "165800.570000",
          "165802.577500",
          "165804.585000",
          "165806.592500",
          "165808.600000",
          "165810.610000",
          "165812.617500",
          "165814.625000",
          "165816.632500",
          "165818.642500",
          "165820.650000"
        ],
        "ContentTime": [
          "165317.591000",
          "165317.591000",
          "165317.591000",
          "165317.591000",
          "165317.591000",
          "165317.606000",
          "165317.606000",
          "165317.606000",
          "165317.606000",
          "165317.606000",
          "165317.622000",
          "165317.622000",
          "165357.575000",
          "165357.575000",
          "165357.575000",
          "165357.591000",
          "165357.591000",
          "165357.591000",
          "165357.591000",
          "165357.591000",
          "165357.591000",
          "165357.606000",
          "165357.622000",
          "165357.622000",
          "165357.622000",
          "165357.622000",
          "165357.622000",
          "165357.622000",
          "165357.638000",
          "165357.638000",
          "165357.638000",
          "165357.638000",
          "165437.575000",
          "165437.575000",
          "165437.575000",
          "165437.575000",
          "165437.591000",
          "165437.591000",
          "165437.591000",
          "165437.591000",
          "165437.591000",
          "165437.591000",
          "165437.591000",
          "165437.606000",
          "165437.606000",
          "165437.606000",
          "165437.622000",
          "165437.622000",
          "165437.622000",
          "165437.638000",
          "165437.638000",
          "165437.638000",
          "165517.575000",
          "165517.575000",
          "165517.591000",
          "165517.591000",
          "165517.591000",
          "165517.606000",
          "165517.606000",
          "165517.606000",
          "165517.606000",
          "165517.622000",
          "165517.622000",
          "165517.622000",
          "165517.622000",
          "165517.622000",
          "165517.638000",
          "165517.638000",
          "165517.638000",
          "165517.638000",
          "165517.653000",
          "165517.653000",
          "165557.575000",
          "165557.575000",
          "165557.575000",
          "165557.575000",
          "165557.591000",
          "165557.591000",
          "165557.606000",
          "165557.606000",
          "165557.606000",
          "165557.606000",
          "165557.622000",
          "165557.622000",
          "165557.622000",
          "165557.622000",
          "165557.638000",
          "165557.638000",
          "165557.638000",
          "165557.638000",
          "165557.638000",
          "165557.653000",
          "165637.575000",
          "165637.575000",
          "165637.575000",
          "165637.575000",
          "165637.591000",
          "165637.591000",
          "165637.591000",
          "165637.591000",
          "165637.591000",
          "165637.591000",
          "165637.606000",
          "165637.606000",
          "165637.622000",
          "165637.622000",
          "165637.622000",
          "165637.622000",
          "165637.622000",
          "165637.638000",
          "165637.638000",
          "165637.638000",
          "165717.575000",
          "165717.575000",
          "165717.575000",
          "165717.575000",
          "165717.591000",
          "165717.591000",
          "165717.591000",
          "165717.591000",
          "165717.591000",
          "165717.606000",
          "165717.606000",
          "165717.606000",
          "165717.606000",
          "165717.622000",
          "165717.638000",
          "165717.638000",
          "165717.638000",
          "165717.638000",
          "165717.638000",
          "165717.653000",
          "165757.575000",
          "165757.575000",
          "165757.591000",
          "165757.606000",
          "165757.606000",
          "165757.606000",
          "165757.622000",
          "165757.622000",
          "165757.622000",
          "165757.638000",
          "165757.638000",
          "165757.638000",
          "165757.638000",
          "165757.638000",
          "165757.653000",
          "165757.653000",
          "165757.653000",
          "165757.653000",
          "165757.669000",
          "165757.669000",
          "165821.309000",
          "165821.309000",
          "165821.325000",
          "165821.325000",
          "165821.325000",
          "165821.325000",
          "165821.341000",
          "165821.341000",
          "165821.356000",
          "165821.356000",
          "165821.372000",
          "165821.372000"
        ],
        "InstanceCreationTime": [
          "165317.591000",
          "165317.591000",
          "165317.591000",
          "165317.591000",
          "165317.591000",
          "165317.606000",
          "165317.606000",
          "165317.606000",
          "165317.606000",
          "165317.606000",
          "165317.622000",
          "165317.622000",
          "165357.575000",
          "165357.575000",
          "165357.575000",
          "165357.591000",
          "165357.591000",
          "165357.591000",
          "165357.591000",
          "165357.591000",
          "165357.591000",
          "165357.606000",
          "165357.622000",
          "165357.622000",
          "165357.622000",
          "165357.622000",
          "165357.622000",
          "165357.622000",
          "165357.638000",
          "165357.638000",
          "165357.638000",
          "165357.638000",
          "165437.575000",
          "165437.575000",
          "165437.575000",
          "165437.575000",
          "165437.591000",
          "165437.591000",
          "165437.591000",
          "165437.591000",
          "165437.591000",
          "165437.591000",
          "165437.591000",
          "165437.606000",
          "165437.606000",
          "165437.606000",
          "165437.622000",
          "165437.622000",
          "165437.622000",
          "165437.638000",
          "165437.638000",
          "165437.638000",
          "165517.575000",
          "165517.575000",
          "165517.591000",
          "165517.591000",
          "165517.591000",
          "165517.606000",
          "165517.606000",
          "165517.606000",
          "165517.606000",
          "165517.622000",
          "165517.622000",
          "165517.622000",
          "165517.622000",
          "165517.622000",
          "165517.638000",
          "165517.638000",
          "165517.638000",
          "165517.638000",
          "165517.653000",
          "165517.653000",
          "165557.575000",
          "165557.575000",
          "165557.575000",
          "165557.575000",
          "165557.591000",
          "165557.591000",
          "165557.606000",
          "165557.606000",
          "165557.606000",
          "165557.606000",
          "165557.622000",
          "165557.622000",
          "165557.622000",
          "165557.622000",
          "165557.638000",
          "165557.638000",
          "165557.638000",
          "165557.638000",
          "165557.638000",
          "165557.653000",
          "165637.575000",
          "165637.575000",
          "165637.575000",
          "165637.575000",
          "165637.591000",
          "165637.591000",
          "165637.591000",
          "165637.591000",
          "165637.591000",
          "165637.591000",
          "165637.606000",
          "165637.606000",
          "165637.622000",
          "165637.622000",
          "165637.622000",
          "165637.622000",
          "165637.622000",
          "165637.638000",
          "165637.638000",
          "165637.638000",
          "165717.575000",
          "165717.575000",
          "165717.575000",
          "165717.575000",
          "165717.591000",
          "165717.591000",
          "165717.591000",
          "165717.591000",
          "165717.591000",
          "165717.606000",
          "165717.606000",
          "165717.606000",
          "165717.606000",
          "165717.622000",
          "165717.638000",
          "165717.638000",
          "165717.638000",
          "165717.638000",
          "165717.638000",
          "165717.653000",
          "165757.575000",
          "165757.575000",
          "165757.591000",
          "165757.606000",
          "165757.606000",
          "165757.606000",
          "165757.622000",
          "165757.622000",
          "165757.622000",
          "165757.638000",
          "165757.638000",
          "165757.638000",
          "165757.638000",
          "165757.638000",
          "165757.653000",
          "165757.653000",
          "165757.653000",
          "165757.653000",
          "165757.669000",
          "165757.669000",
          "165821.309000",
          "165821.309000",
          "165821.325000",
          "165821.325000",
          "165821.325000",
          "165821.325000",
          "165821.341000",
          "165821.341000",
          "165821.356000",
          "165821.356000",
          "165821.372000",
          "165821.372000"
        ],
        "InstanceNumber": [
          1,
          2,
          3,
          4,
          5,
          6,
          7,
          8,
          9,
          10,
          11,
          12,
          13,
          14,
          15,
          16,
          17,
          18,
          19,
          20,
          21,
          22,
          23,
          24,
          25,
          26,
          27,
          28,
          29,
          30,
          31,
          32,
          33,
          34,
          35,
          36,
          37,
          38,
          39,
          40,
          41,
          42,
          43,
          44,
          45,
          46,
          47,
          48,
          49,
          50,
          51,
          52,
          53,
          54,
          55,
          56,
          57,
          58,
          59,
          60,
          61,
          62,
          63,
          64,
          65,
          66,
          67,
          68,
          69,
          70,
          71,
          72,
          73,
          74,
          75,
          76,
          77,
          78,
          79,
          80,
          81,
          82,
          83,
          84,
          85,
          86,
          87,
          88,
          89,
          90,
          91,
          92,
          93,
          94,
          95,
          96,
          97,
          98,
          99,
          100,
          101,
          102,
          103,
          104,
          105,
          106,
          107,
          108,
          109,
          110,
          111,
          112,
          113,
          114,
          115,
          116,
          117,
          118,
          119,
          120,
          121,
          122,
          123,
          124,
          125,
          126,
          127,
          128,
          129,
          130,
          131,
          132,
          133,
          134,
          135,
          136,
          137,
          138,
          139,
          140,
          141,
          142,
          143,
          144,
          145,
          146,
          147,
          148,
          149,
          150,
          151,
          152,
          153,
          154,
          155,
          156,
          157,
          158,
          159,
          160,
          161,
          162,
          163,
          164
        ],
        "WindowCenter": [
          983.0,
          982.0,
          982.0,
          982.0,
          982.0,
          982.0,
          983.0,
          983.0,
          983.0,
          981.0,
          982.0,
          982.0,
          982.0,
          982.0,
          982.0,
          983.0,
          981.0,
          981.0,
          981.0,
          982.0,
          981.0,
          981.0,
          983.0,
          982.0,
          981.0,
          981.0,
          982.0,
          981.0,
          981.0,
          982.0,
          982.0,
          982.0,
          982.0,
          981.0,
          981.0,
          982.0,
          982.0,
          982.0,
          981.0,
          982.0,
          981.0,
          981.0,
          981.0,
          980.0,
          980.0,
          980.0,
          979.0,
          980.0,
          981.0,
          982.0,
          980.0,
          981.0,
          981.0,
          980.0,
          980.0,
          981.0,
          981.0,
          981.0,
          981.0,
          981.0,
          981.0,
          980.0,
          980.0,
          980.0,
          980.0,
          981.0,
          981.0,
          979.0,
          979.0,
          981.0,
          981.0,
          980.0,
          979.0,
          979.0,
          980.0,
          980.0,
          980.0,
          980.0,
          980.0,
          980.0,
          981.0,
          981.0,
          980.0,
          980.0,
          981.0,
          981.0,
          982.0,
          981.0,
          980.0,
          980.0,
          981.0,
          980.0,
          980.0,
          980.0,
          980.0,
          979.0,
          979.0,
          979.0,
          979.0,
          979.0,
          979.0,
          979.0,
          979.0,
          979.0,
          980.0,
          980.0,
          980.0,
          980.0,
          981.0,
          982.0,
          981.0,
          981.0,
          980.0,
          980.0,
          981.0,
          979.0,
          979.0,
          980.0,
          980.0,
          980.0,
          979.0,
          979.0,
          979.0,
          979.0,
          978.0,
          979.0,
          979.0,
          978.0,
          978.0,
          978.0,
          979.0,
          979.0,
          978.0,
          979.0,
          980.0,
          980.0,
          979.0,
          980.0,
          979.0,
          979.0,
          980.0,
          979.0,
          978.0,
          979.0,
          978.0,
          980.0,
          980.0,
          979.0,
          980.0,
          979.0,
          980.0,
          980.0,
          980.0,
          979.0,
          980.0,
          980.0,
          980.0,
          979.0,
          981.0,
          981.0,
          980.0,
          979.0,
          979.0,
          979.0
        ],
        "WindowWidth": [
          2634.0,
          2632.0,
          2631.0,
          2631.0,
          2633.0,
          2636.0,
          2641.0,
          2646.0,
          2642.0,
          2635.0,
          2634.0,
          2635.0,
          2636.0,
          2634.0,
          2634.0,
          2634.0,
          2629.0,
          2628.0,
          2630.0,
          2629.0,
          2626.0,
          2634.0,
          2636.0,
          2631.0,
          2628.0,
          2632.0,
          2634.0,
          2633.0,
          2632.0,
          2635.0,
          2636.0,
          2636.0,
          2632.0,
          2632.0,
          2635.0,
          2640.0,
          2641.0,
          2640.0,
          2641.0,
          2637.0,
          2632.0,
          2637.0,
          2636.0,
          2633.0,
          2632.0,
          2628.0,
          2628.0,
          2627.0,
          2630.0,
          2632.0,
          2628.0,
          2626.0,
          2625.0,
          2624.0,
          2623.0,
          2624.0,
          2625.0,
          2622.0,
          2623.0,
          2627.0,
          2626.0,
          2624.0,
          2624.0,
          2624.0,
          2626.0,
          2631.0,
          2632.0,
          2627.0,
          2626.0,
          2632.0,
          2637.0,
          2632.0,
          2627.0,
          2627.0,
          2629.0,
          2632.0,
          2633.0,
          2629.0,
          2623.0,
          2625.0,
          2628.0,
          2627.0,
          2623.0,
          2624.0,
          2627.0,
          2635.0,
          2632.0,
          2627.0,
          2627.0,
          2630.0,
          2631.0,
          2626.0,
          2626.0,
          2628.0,
          2627.0,
          2626.0,
          2628.0,
          2628.0,
          2625.0,
          2629.0,
