{
  "aor": 0.0040881707317073175,
  "aqi": 0.00952852518292683,
  "bids_meta": {
    "AcquisitionMatrixPE": 96,
    "AcquisitionNumber": 1,
    "AcquisitionTime": "16:46:7.620000",
    "BandwidthPerPixelPhaseEncode": 52.083,
    "BaseResolution": 96,
    "BodyPartExamined": "HEAD",
    "ConversionSoftware": "dcm2niix",
    "ConversionSoftwareVersion": "v1.0.20180622 GCC6.3.0",
    "DerivedVendorReportedEchoSpacing": 0.000600004,
    "DeviceSerialNumber": "18926",
    "DwellTime": 2.6e-06,
    "EchoTime": 0.025,
    "EffectiveEchoSpacing": 0.000200001,
    "FlipAngle": 50,
    "ImageOrientationPatientDICOM": [
      1,
      -2.05103e-10,
      0,
      2.05103e-10,
      1,
      0
    ],
    "ImageType": [
      "ORIGINAL",
      "PRIMARY",
      "M",
      "ND",
      "ECHO",
      "00",
      "MOSAIC"
    ],
    "InPlanePhaseEncodingDirectionDICOM": "ROW",
    "InstitutionName": "NIMH",
    "InstitutionalDepartmentName": "Department",
    "MRAcquisitionType": "2D",
    "MagneticFieldStrength": 6.98,
    "Manufacturer": "Siemens",
    "ManufacturersModelName": "Investigational_Device_7T",
    "Modality": "MR",
    "ParallelReductionFactorInPlane": 3,
    "PartialFourier": 1,
    "PatientPosition": "HFS",
    "PercentPhaseFOV": 100,
    "PhaseEncodingDirection": "i",
    "PhaseEncodingSteps": 94,
    "PhaseResolution": 1,
    "PixelBandwidth": 2003,
    "ProcedureStepDescription": "MRI_Procedure_Limited",
    "ProtocolName": "NIH_EPI_2.0iso_TR2_Run04",
    "PulseSequenceDetails": "%CustomerSeq%_inati_nih_epi",
    "ReceiveCoilName": "32Ch_Head_7T",
    "ReconMatrixPE": 96,
    "RepetitionTime": 2,
    "SAR": 0.0954305,
    "ScanningSequence": "EP",
    "SequenceName": "epfid2d1_96",
    "SequenceVariant": "SK",
    "SeriesDescription": "NIH_EPI_2.0iso_TR2_Run04",
    "SeriesNumber": 9,
    "ShimSetting": [
      -35,
      -33,
      1383,
      2505,
      128,
      80,
      532,
      -309
    ],
    "SliceThickness": 2,
    "SliceTiming": [
      1.0025,
      0,
      1.04,
      0.0375,
      1.0775,
      0.075,
      1.115,
      0.1125,
      1.1525,
      0.1475,
      1.19,
      0.185,
      1.2275,
      0.2225,
      1.265,
      0.26,
      1.3,
      0.2975,
      1.3375,
      0.335,
      1.375,
      0.3725,
      1.4125,
      0.4075,
      1.45,
      0.445,
      1.4875,
      0.4825,
      1.525,
      0.52,
      1.5625,
      0.5575,
      1.5975,
      0.595,
      1.635,
      0.6325,
      1.6725,
      0.67,
      1.71,
      0.705,
      1.7475,
      0.7425,
      1.785,
      0.78,
      1.8225,
      0.8175,
      1.8575,
      0.855,
      1.895,
      0.8925,
      1.9325,
      0.93,
      1.97,
      0.9675
    ],
    "SoftwareVersions": "syngo_MR_B17",
    "SpacingBetweenSlices": 2,
    "StationName": "FMRIFD7T",
    "TaskName": "FullFovAttentionTask",
    "TotalReadoutTime": 0.0190001,
    "TxRefAmp": 302,
    "dataset": "ds001555",
    "dcmmeta_affine": [
      [
        -2.0,
        4.1020681296188855e-10,
        0.0,
        95.98538208007812
      ],
      [
        4.1020681296188855e-10,
        2.0,
        0.0,
        -68.37484741210938
      ],
      [
        0.0,
        0.0,
        1.9999998807907104,
        -17.773967742919922
      ],
      [
        0.0,
        0.0,
        0.0,
        1.0
      ]
    ],
    "dcmmeta_reorient_transform": [
      [
        0.0,
        -1.0,
        0.0,
        95.0
      ],
      [
        1.0,
        0.0,
        0.0,
        0.0
      ],
      [
        0.0,
        0.0,
        1.0,
        0.0
      ],
      [
        0.0,
        0.0,
        0.0,
        1.0
      ]
    ],
    "dcmmeta_shape": [
      96,
      96,
      54,
      164
    ],
    "dcmmeta_slice_dim": 2,
    "dcmmeta_version": 0.6,
    "global": {
      "const": {
        "AcquisitionMatrix": [
          0,
          96,
          96,
          0
        ],
        "Allergies": "No Known Allergies",
        "AngioFlag": "N",
        "BitsAllocated": 16,
        "BitsStored": 12,
        "BodyPartExamined": "HEAD",
        "Columns": 768,
        "EchoNumbers": 1,
        "EchoTime": 25.0,
        "EchoTrainLength": 1,
        "FlipAngle": 50.0,
        "HighBit": 11,
        "ImageOrientationPatient": [
          1.0,
          -2.051034e-10,
          0.0,
          2.051034e-10,
          1.0,
          0.0
        ],
        "ImagePositionPatient": [
          -767.98537955166,
          -793.62515624507,
          -17.77396774292
        ],
        "ImageType": [
          "ORIGINAL",
          "PRIMARY",
          "M",
          "ND",
          "ECHO_00",
          "MOSAIC"
        ],
        "ImagedNucleus": "1H",
        "ImagingFrequency": 297.204803,
        "InPlanePhaseEncodingDirection": "ROW",
        "LargestImagePixelValue": 4095,
        "MRAcquisitionType": "2D",
        "MagneticFieldStrength": 6.98,
        "Manufacturer": "SIEMENS",
        "ManufacturerModelName": "Investigational_Device_7T",
        "Modality": "MR",
        "NumberOfAverages": 1.0,
        "NumberOfPhaseEncodingSteps": 94,
        "PercentPhaseFieldOfView": 100.0,
        "PercentSampling": 100.0,
        "PerformedProcedureStepStartTime": "155403.794000",
        "PhotometricInterpretation": "MONOCHROME2",
        "PixelBandwidth": 2003.0,
        "PixelRepresentation": 0,
        "PixelSpacing": [
          2.0,
          2.0
        ],
        "PositionReferenceIndicator": "",
        "ProcedureCodeSequence": [
          {
            "CodeMeaning": "MRI Procedure Limited",
            "CodeValue": "MI01491",
            "CodingSchemeDesignator": "USA Standard",
            "ContextIdentifier": "4000131003"
          }
        ],
        "ProtocolName": "NIH_EPI_2.0iso_TR2_Run04",
        "ReferencedStudySequence": [
          {
            "ReferencedSOPClassUID": "1.2.840.10008.3.1.2.3.1",
            "ReferencedSOPInstanceUID": "1.2.840.113564.9.1.2787814059.53.2.5000096846"
          }
        ],
        "RepetitionTime": 2000.0,
        "RequestedProcedureCodeSequence": [
          {
            "CodeMeaning": "MRI Procedure Limited",
            "CodeValue": "MI01491",
            "CodingSchemeDesignator": "USA Standard",
            "ContextIdentifier": "4000131003"
          }
        ],
        "RequestingService": "NIMH Molecular Imaging Branch",
        "Rows": 768,
        "SAR": 0.0954305326624,
        "SamplesPerPixel": 1,
        "ScanningSequence": "EP",
        "SequenceName": "epfid2d1_96",
        "SequenceVariant": "SK",
        "SeriesDescription": "NIH_EPI_2.0iso_TR2_Run04",
        "SeriesNumber": 9,
        "SliceLocation": -17.77396774292,
        "SliceThickness": 2.0,
        "SmallestImagePixelValue": 0,
        "SoftwareVersions": "syngo MR B17",
        "SpacingBetweenSlices": 1.9999999280246,
        "TransmitCoilName": "32Ch_Head_7T",
        "VariableFlipAngleFlag": "N",
        "WindowCenterWidthExplanation": "Algo1",
        "dBdt": 0.0
      },
      "slices": {}
    },
    "modality": "bold",
    "run_id": 6,
    "session_id": "08",
    "subject_id": "003",
    "task_id": "FullFovAttentionTask",
    "time": {
      "samples": {
        "AcquisitionNumber": [
          1,
          2,
          3,
          4,
          5,
          6,
          7,
          8,
          9,
          10,
          11,
          12,
          13,
          14,
          15,
          16,
          17,
          18,
          19,
          20,
          21,
          22,
          23,
          24,
          25,
          26,
          27,
          28,
          29,
          30,
          31,
          32,
          33,
          34,
          35,
          36,
          37,
          38,
          39,
          40,
          41,
          42,
          43,
          44,
          45,
          46,
          47,
          48,
          49,
          50,
          51,
          52,
          53,
          54,
          55,
          56,
          57,
          58,
          59,
          60,
          61,
          62,
          63,
          64,
          65,
          66,
          67,
          68,
          69,
          70,
          71,
          72,
          73,
          74,
          75,
          76,
          77,
          78,
          79,
          80,
          81,
          82,
          83,
          84,
          85,
          86,
          87,
          88,
          89,
          90,
          91,
          92,
          93,
          94,
          95,
          96,
          97,
          98,
          99,
          100,
          101,
          102,
          103,
          104,
          105,
          106,
          107,
          108,
          109,
          110,
          111,
          112,
          113,
          114,
          115,
          116,
          117,
          118,
          119,
          120,
          121,
          122,
          123,
          124,
          125,
          126,
          127,
          128,
          129,
          130,
          131,
          132,
          133,
          134,
          135,
          136,
          137,
          138,
          139,
          140,
          141,
          142,
          143,
          144,
          145,
          146,
          147,
          148,
          149,
          150,
          151,
          152,
          153,
          154,
          155,
          156,
          157,
          158,
          159,
          160,
          161,
          162,
          163,
          164
        ],
        "AcquisitionTime": [
          "164607.620000",
          "164611.637500",
          "164613.645000",
          "164615.652500",
          "164617.660000",
          "164619.670000",
          "164621.677500",
          "164623.685000",
          "164625.692500",
          "164627.702500",
          "164629.710000",
          "164631.717500",
          "164633.725000",
          "164635.732500",
          "164637.742500",
          "164639.750000",
          "164641.757500",
          "164643.765000",
          "164645.772500",
          "164647.782500",
          "164649.790000",
          "164651.797500",
          "164653.805000",
          "164655.815000",
          "164657.822500",
          "164659.830000",
          "164701.837500",
          "164703.845000",
          "164705.855000",
          "164707.862500",
          "164709.870000",
          "164711.877500",
          "164713.885000",
          "164715.895000",
          "164717.902500",
          "164719.910000",
          "164721.917500",
          "164723.927500",
          "164725.935000",
          "164727.942500",
          "164729.950000",
          "164731.957500",
          "164733.967500",
          "164735.975000",
          "164737.982500",
          "164739.990000",
          "164741.997500",
          "164744.007500",
          "164746.015000",
          "164748.022500",
          "164750.030000",
          "164752.037500",
          "164754.047500",
          "164756.055000",
          "164758.062500",
          "164800.070000",
          "164802.080000",
          "164804.087500",
          "164806.095000",
          "164808.102500",
          "164810.110000",
          "164812.120000",
          "164814.127500",
          "164816.135000",
          "164818.142500",
          "164820.150000",
          "164822.160000",
          "164824.167500",
          "164826.175000",
          "164828.182500",
          "164830.192500",
          "164832.200000",
          "164834.207500",
          "164836.215000",
          "164838.222500",
          "164840.232500",
          "164842.240000",
          "164844.247500",
          "164846.255000",
          "164848.262500",
          "164850.272500",
          "164852.280000",
          "164854.287500",
          "164856.295000",
          "164858.305000",
          "164900.312500",
          "164902.320000",
          "164904.327500",
          "164906.335000",
          "164908.345000",
          "164910.352500",
          "164912.360000",
          "164914.367500",
          "164916.375000",
          "164918.385000",
          "164920.392500",
          "164922.400000",
          "164924.407500",
          "164926.417500",
          "164928.425000",
          "164930.432500",
          "164932.440000",
          "164934.447500",
          "164936.457500",
          "164938.465000",
          "164940.472500",
          "164942.480000",
          "164944.487500",
          "164946.497500",
          "164948.505000",
          "164950.512500",
          "164952.520000",
          "164954.527500",
          "164956.537500",
          "164958.545000",
          "165000.552500",
          "165002.560000",
          "165004.570000",
          "165006.577500",
          "165008.585000",
          "165010.592500",
          "165012.600000",
          "165014.610000",
          "165016.617500",
          "165018.625000",
          "165020.632500",
          "165022.640000",
          "165024.650000",
          "165026.657500",
          "165028.665000",
          "165030.672500",
          "165032.682500",
          "165034.690000",
          "165036.697500",
          "165038.705000",
          "165040.712500",
          "165042.722500",
          "165044.730000",
          "165046.737500",
          "165048.745000",
          "165050.752500",
          "165052.762500",
          "165054.770000",
          "165056.777500",
          "165058.785000",
          "165100.795000",
          "165102.802500",
          "165104.810000",
          "165106.817500",
          "165108.825000",
          "165110.835000",
          "165112.842500",
          "165114.850000",
          "165116.857500",
          "165118.865000",
          "165120.875000",
          "165122.882500",
          "165124.890000",
          "165126.897500",
          "165128.905000",
          "165130.915000",
          "165132.922500",
          "165134.930000",
          "165136.937500"
        ],
        "ContentTime": [
          "164701.388000",
          "164701.388000",
          "164701.388000",
          "164701.403000",
          "164701.403000",
          "164701.403000",
          "164701.403000",
          "164701.403000",
          "164701.419000",
          "164701.419000",
          "164701.419000",
          "164701.419000",
          "164701.419000",
          "164701.419000",
          "164701.419000",
          "164701.434000",
          "164701.434000",
          "164701.434000",
          "164701.434000",
          "164701.450000",
          "164701.450000",
          "164701.466000",
          "164701.466000",
          "164701.466000",
          "164701.466000",
          "164741.372000",
          "164741.388000",
          "164741.388000",
          "164741.388000",
          "164741.388000",
          "164741.388000",
          "164741.388000",
          "164741.403000",
          "164741.403000",
          "164741.403000",
          "164741.403000",
          "164741.403000",
          "164741.403000",
          "164741.403000",
          "164741.419000",
          "164741.419000",
          "164741.419000",
          "164741.419000",
          "164741.434000",
          "164741.434000",
          "164821.372000",
          "164821.372000",
          "164821.372000",
          "164821.372000",
          "164821.388000",
          "164821.388000",
          "164821.403000",
          "164821.403000",
          "164821.403000",
          "164821.403000",
          "164821.403000",
          "164821.403000",
          "164821.419000",
          "164821.419000",
          "164821.419000",
          "164821.434000",
          "164821.434000",
          "164821.434000",
          "164821.434000",
          "164821.434000",
          "164901.372000",
          "164901.372000",
          "164901.372000",
          "164901.372000",
          "164901.388000",
          "164901.403000",
          "164901.403000",
          "164901.403000",
          "164901.403000",
          "164901.419000",
          "164901.419000",
          "164901.419000",
          "164901.419000",
          "164901.434000",
          "164901.434000",
          "164901.434000",
          "164901.434000",
          "164901.434000",
          "164901.434000",
          "164901.450000",
          "164941.372000",
          "164941.372000",
          "164941.372000",
          "164941.388000",
          "164941.388000",
          "164941.388000",
          "164941.388000",
          "164941.388000",
          "164941.388000",
          "164941.388000",
          "164941.403000",
          "164941.403000",
          "164941.403000",
          "164941.419000",
          "164941.419000",
          "164941.434000",
          "164941.434000",
          "164941.434000",
          "164941.434000",
          "164941.434000",
          "165021.372000",
          "165021.388000",
          "165021.388000",
          "165021.403000",
          "165021.403000",
          "165021.403000",
          "165021.403000",
          "165021.403000",
          "165021.419000",
          "165021.419000",
          "165021.419000",
          "165021.419000",
          "165021.419000",
          "165021.419000",
          "165021.434000",
          "165021.434000",
          "165021.434000",
          "165021.450000",
          "165021.450000",
          "165021.450000",
          "165101.372000",
          "165101.372000",
          "165101.372000",
          "165101.372000",
          "165101.388000",
          "165101.403000",
          "165101.403000",
          "165101.403000",
          "165101.403000",
          "165101.403000",
          "165101.403000",
          "165101.419000",
          "165101.419000",
          "165101.419000",
          "165101.434000",
          "165101.434000",
          "165101.434000",
          "165101.434000",
          "165101.434000",
          "165101.434000",
          "165137.591000",
          "165137.591000",
          "165137.591000",
          "165137.606000",
          "165137.606000",
          "165137.606000",
          "165137.606000",
          "165137.606000",
          "165137.606000",
          "165137.606000",
          "165137.622000",
          "165137.638000",
          "165137.638000",
          "165137.638000",
          "165137.638000",
          "165137.638000",
          "165137.638000",
          "165137.638000",
          "165137.653000"
        ],
        "InstanceCreationTime": [
          "164701.388000",
          "164701.388000",
          "164701.388000",
          "164701.403000",
          "164701.403000",
          "164701.403000",
          "164701.403000",
          "164701.403000",
          "164701.419000",
          "164701.419000",
          "164701.419000",
          "164701.419000",
          "164701.419000",
          "164701.419000",
          "164701.419000",
          "164701.434000",
          "164701.434000",
          "164701.434000",
          "164701.434000",
          "164701.450000",
          "164701.450000",
          "164701.466000",
          "164701.466000",
          "164701.466000",
          "164701.466000",
          "164741.372000",
          "164741.388000",
          "164741.388000",
          "164741.388000",
          "164741.388000",
          "164741.388000",
          "164741.388000",
          "164741.403000",
          "164741.403000",
          "164741.403000",
          "164741.403000",
          "164741.403000",
          "164741.403000",
          "164741.403000",
          "164741.419000",
          "164741.419000",
          "164741.419000",
          "164741.419000",
          "164741.434000",
          "164741.434000",
          "164821.372000",
          "164821.372000",
          "164821.372000",
          "164821.372000",
          "164821.388000",
          "164821.388000",
          "164821.403000",
          "164821.403000",
          "164821.403000",
          "164821.403000",
          "164821.403000",
          "164821.403000",
          "164821.419000",
          "164821.419000",
          "164821.419000",
          "164821.434000",
          "164821.434000",
          "164821.434000",
          "164821.434000",
          "164821.434000",
          "164901.372000",
          "164901.372000",
          "164901.372000",
          "164901.372000",
          "164901.388000",
          "164901.403000",
          "164901.403000",
          "164901.403000",
          "164901.403000",
          "164901.419000",
          "164901.419000",
          "164901.419000",
          "164901.419000",
          "164901.434000",
          "164901.434000",
          "164901.434000",
          "164901.434000",
          "164901.434000",
          "164901.434000",
          "164901.450000",
          "164941.372000",
          "164941.372000",
          "164941.372000",
          "164941.388000",
          "164941.388000",
          "164941.388000",
          "164941.388000",
          "164941.388000",
          "164941.388000",
          "164941.388000",
          "164941.403000",
          "164941.403000",
          "164941.403000",
          "164941.419000",
          "164941.419000",
          "164941.434000",
          "164941.434000",
          "164941.434000",
          "164941.434000",
          "164941.434000",
          "165021.372000",
          "165021.388000",
          "165021.388000",
          "165021.403000",
          "165021.403000",
          "165021.403000",
          "165021.403000",
          "165021.403000",
          "165021.419000",
          "165021.419000",
          "165021.419000",
          "165021.419000",
          "165021.419000",
          "165021.419000",
          "165021.434000",
          "165021.434000",
          "165021.434000",
          "165021.450000",
          "165021.450000",
          "165021.450000",
          "165101.372000",
          "165101.372000",
          "165101.372000",
          "165101.372000",
          "165101.388000",
          "165101.403000",
          "165101.403000",
          "165101.403000",
          "165101.403000",
          "165101.403000",
          "165101.403000",
          "165101.419000",
          "165101.419000",
          "165101.419000",
          "165101.434000",
          "165101.434000",
          "165101.434000",
          "165101.434000",
          "165101.434000",
          "165101.434000",
          "165137.591000",
          "165137.591000",
          "165137.591000",
          "165137.606000",
          "165137.606000",
          "165137.606000",
          "165137.606000",
          "165137.606000",
          "165137.606000",
          "165137.606000",
          "165137.622000",
          "165137.638000",
          "165137.638000",
          "165137.638000",
          "165137.638000",
          "165137.638000",
          "165137.638000",
          "165137.638000",
          "165137.653000"
        ],
        "InstanceNumber": [
          1,
          2,
          3,
          4,
          5,
          6,
          7,
          8,
          9,
          10,
          11,
          12,
          13,
          14,
          15,
          16,
          17,
          18,
          19,
          20,
          21,
          22,
          23,
          24,
          25,
          26,
          27,
          28,
          29,
          30,
          31,
          32,
          33,
          34,
          35,
          36,
          37,
          38,
          39,
          40,
          41,
          42,
          43,
          44,
          45,
          46,
          47,
          48,
          49,
          50,
          51,
          52,
          53,
          54,
          55,
          56,
          57,
          58,
          59,
          60,
          61,
          62,
          63,
          64,
          65,
          66,
          67,
          68,
          69,
          70,
          71,
          72,
          73,
          74,
          75,
          76,
          77,
          78,
          79,
          80,
          81,
          82,
          83,
          84,
          85,
          86,
          87,
          88,
          89,
          90,
          91,
          92,
          93,
          94,
          95,
          96,
          97,
          98,
          99,
          100,
          101,
          102,
          103,
          104,
          105,
          106,
          107,
          108,
          109,
          110,
          111,
          112,
          113,
          114,
          115,
          116,
          117,
          118,
          119,
          120,
          121,
          122,
          123,
          124,
          125,
          126,
          127,
          128,
          129,
          130,
          131,
          132,
          133,
          134,
          135,
          136,
          137,
          138,
          139,
          140,
          141,
          142,
          143,
          144,
          145,
          146,
          147,
          148,
          149,
          150,
          151,
          152,
          153,
          154,
          155,
          156,
          157,
          158,
          159,
          160,
          161,
          162,
          163,
          164
        ],
        "WindowCenter": [
          985.0,
          984.0,
          984.0,
          984.0,
          984.0,
          984.0,
          984.0,
          984.0,
          983.0,
          983.0,
          984.0,
          985.0,
          984.0,
          983.0,
          983.0,
          983.0,
          983.0,
          983.0,
          982.0,
          983.0,
          984.0,
          984.0,
          983.0,
          984.0,
          984.0,
          983.0,
          984.0,
          984.0,
          985.0,
          985.0,
          985.0,
          984.0,
          982.0,
          984.0,
          985.0,
          984.0,
          983.0,
          984.0,
          985.0,
          984.0,
          982.0,
          983.0,
          983.0,
          983.0,
          982.0,
          983.0,
          983.0,
          983.0,
          984.0,
          983.0,
          983.0,
          984.0,
          984.0,
          984.0,
          984.0,
          984.0,
          984.0,
          984.0,
          984.0,
          983.0,
          983.0,
          982.0,
          982.0,
          983.0,
          984.0,
          984.0,
          984.0,
          983.0,
          983.0,
          984.0,
          984.0,
          984.0,
          983.0,
          984.0,
          983.0,
          983.0,
          984.0,
          985.0,
          984.0,
          983.0,
          983.0,
          984.0,
          983.0,
          983.0,
          983.0,
          984.0,
          983.0,
          983.0,
          982.0,
          983.0,
          983.0,
          982.0,
          982.0,
          982.0,
          982.0,
          982.0,
          982.0,
          982.0,
          982.0,
          982.0,
          982.0,
          983.0,
          983.0,
          983.0,
          982.0,
          982.0,
          982.0,
          983.0,
          984.0,
          983.0,
          982.0,
          982.0,
          982.0,
          983.0,
          983.0,
          983.0,
          984.0,
          983.0,
          983.0,
          983.0,
          983.0,
          983.0,
          982.0,
          982.0,
          983.0,
          983.0,
          982.0,
          982.0,
          982.0,
          981.0,
          981.0,
          982.0,
          982.0,
          982.0,
          981.0,
          981.0,
          981.0,
          982.0,
          982.0,
          981.0,
          982.0,
          982.0,
          980.0,
          981.0,
          982.0,
          982.0,
          982.0,
          982.0,
          982.0,
          982.0,
          979.0,
          980.0,
          982.0,
          981.0,
          981.0,
          981.0,
          982.0,
          982.0,
          981.0,
          981.0,
          981.0,
          982.0,
          983.0,
          983.0
        ],
        "WindowWidth": [
          2636.0,
          2632.0,
          2632.0,
          2633.0,
          2633.0,
          2635.0,
          2638.0,
          2640.0,
          2636.0,
          2634.0,
          2644.0,
          2646.0,
          2637.0,
          2632.0,
          2635.0,
          2638.0,
          2636.0,
          2630.0,
          2626.0,
          2629.0,
          2632.0,
          2631.0,
          2630.0,
          2633.0,
          2634.0,
          2635.0,
          2635.0,
          2636.0,
          2639.0,
          2644.0,
          2639.0,
          2634.0,
          2638.0,
          2646.0,
          2645.0,
          2636.0,
          2636.0,
          2643.0,
          2648.0,
          2639.0,
          2629.0,
          2633.0,
          2638.0,
          2640.0,
          2637.0,
          2635.0,
          2638.0,
          2637.0,
          2636.0,
          2635.0,
          2634.0,
          2633.0,
          2634.0,
          2637.0,
          2638.0,
          2640.0,
          2638.0,
          2636.0,
          2635.0,
          2637.0,
          2638.0,
          2636.0,
          2637.0,
          2641.0,
          2645.0,
          2648.0,
          2645.0,
          2642.0,
          2642.0,
          2645.0,
          2648.0,
          2649.0,
          2647.0,
          2645.0,
          2645.0,
          2647.0,
          2650.0,
          2647.0,
          2638.0,
          2639.0,
          2641.0,
          2641.0,
          2639.0,
          2638.0,
          2642.0,
          2644.0,
          2641.0,
          2636.0,
          2635.0,
          2637.0,
          2638.0,
          2637.0,
          2639.0,
          2638.0,
          2634.0,
          2632.0,
          2637.0,
          2639.0,
          2638.0,
          2640.0,
