{
  "aor": 0.001230609756097561,
  "aqi": 0.004914960426829269,
  "bids_meta": {
    "AcquisitionMatrixPE": 96,
    "AcquisitionNumber": 1,
    "AcquisitionTime": "13:59:46.650000",
    "BandwidthPerPixelPhaseEncode": 52.083,
    "BaseResolution": 96,
    "ConversionSoftware": "dcm2niix",
    "ConversionSoftwareVersion": "v1.0.20180622 GCC6.3.0",
    "DerivedVendorReportedEchoSpacing": 0.000600004,
    "DeviceSerialNumber": "18926",
    "DwellTime": 2.6e-06,
    "EchoTime": 0.025,
    "EffectiveEchoSpacing": 0.000200001,
    "FlipAngle": 50,
    "ImageOrientationPatientDICOM": [
      0.999992,
      0.00067012,
      0.00404905,
      2.11009e-10,
      0.98658,
      -0.16328
    ],
    "ImageType": [
      "ORIGINAL",
      "PRIMARY",
      "M",
      "ND",
      "ECHO",
      "00",
      "MOSAIC"
    ],
    "InPlanePhaseEncodingDirectionDICOM": "ROW",
    "InstitutionName": "NIMH",
    "InstitutionalDepartmentName": "Department",
    "MRAcquisitionType": "2D",
    "MagneticFieldStrength": 6.98,
    "Manufacturer": "Siemens",
    "ManufacturersModelName": "Investigational_Device_7T",
    "Modality": "MR",
    "ParallelReductionFactorInPlane": 3,
    "PartialFourier": 1,
    "PatientPosition": "HFS",
    "PercentPhaseFOV": 100,
    "PhaseEncodingDirection": "i",
    "PhaseEncodingSteps": 94,
    "PhaseResolution": 1,
    "PixelBandwidth": 2003,
    "ProcedureStepDescription": "UserProtocols_FMRIF_Templates",
    "ProtocolName": "NIH_EPI_2.0iso_TR2_Run10",
    "PulseSequenceDetails": "%CustomerSeq%_inati_nih_epi",
    "ReceiveCoilName": "32Ch_Head_7T",
    "ReconMatrixPE": 96,
    "RepetitionTime": 2,
    "SAR": 0.0734712,
    "ScanningSequence": "EP",
    "SequenceName": "epfid2d1_96",
    "SequenceVariant": "SK",
    "SeriesDescription": "NIH_EPI_2.0iso_TR2_Run10",
    "SeriesNumber": 14,
    "ShimSetting": [
      -115,
      266,
      1196,
      1579,
      -89,
      563,
      139,
      -272
    ],
    "SliceThickness": 2,
    "SliceTiming": [
      1.0025,
      0,
      1.04,
      0.0375,
      1.0775,
      0.0725,
      1.115,
      0.11,
      1.1525,
      0.1475,
      1.19,
      0.185,
      1.225,
      0.2225,
      1.2625,
      0.26,
      1.3,
      0.2975,
      1.3375,
      0.335,
      1.375,
      0.37,
      1.4125,
      0.4075,
      1.45,
      0.445,
      1.4875,
      0.4825,
      1.5225,
      0.52,
      1.56,
      0.5575,
      1.5975,
      0.595,
      1.635,
      0.63,
      1.6725,
      0.6675,
      1.71,
      0.705,
      1.7475,
      0.7425,
      1.7825,
      0.78,
      1.82,
      0.8175,
      1.8575,
      0.855,
      1.895,
      0.8925,
      1.9325,
      0.9275,
      1.97,
      0.965
    ],
    "SoftwareVersions": "syngo_MR_B17",
    "SpacingBetweenSlices": 2,
    "StationName": "FMRIFD7T",
    "TaskName": "FullFovNoAttentionTask",
    "TotalReadoutTime": 0.0190001,
    "TxRefAmp": 270,
    "dataset": "ds001555",
    "dcmmeta_affine": [
      [
        -1.9999831914901733,
        4.2201880878778297e-10,
        0.008208253420889378,
        95.76705169677734
      ],
      [
        -0.0013402394251897931,
        1.973159670829773,
        -0.32655632495880127,
        -59.74467468261719
      ],
      [
        0.008098097518086433,
        0.32655906677246094,
        1.9731429815292358,
        -55.7390022277832
      ],
      [
        0.0,
        0.0,
        0.0,
        1.0
      ]
    ],
    "dcmmeta_reorient_transform": [
      [
        0.0,
        -1.0,
        0.0,
        95.0
      ],
      [
        1.0,
        0.0,
        0.0,
        0.0
      ],
      [
        0.0,
        0.0,
        1.0,
        0.0
      ],
      [
        0.0,
        0.0,
        0.0,
        1.0
      ]
    ],
    "dcmmeta_shape": [
      96,
      96,
      54,
      164
    ],
    "dcmmeta_slice_dim": 2,
    "dcmmeta_version": 0.6,
    "global": {
      "const": {
        "AcquisitionMatrix": [
          0,
          96,
          96,
          0
        ],
        "AngioFlag": "N",
        "BitsAllocated": 16,
        "BitsStored": 12,
        "Columns": 768,
        "EchoNumbers": 1,
        "EchoTime": 25.0,
        "EchoTrainLength": 1,
        "FlipAngle": 50.0,
        "HighBit": 11,
        "ImageOrientationPatient": [
          0.99999157803662,
          0.00067011969073,
          0.00404904870684,
          2.110094e-10,
          0.98657984636313,
          -0.1632795356133
        ],
        "ImagePositionPatient": [
          -767.761392775,
          -791.1374745092,
          82.286995969312
        ],
        "ImageType": [
          "ORIGINAL",
          "PRIMARY",
          "M",
          "ND",
          "ECHO_00",
          "MOSAIC"
        ],
        "ImagedNucleus": "1H",
        "ImagingFrequency": 297.205139,
        "InPlanePhaseEncodingDirection": "ROW",
        "LargestImagePixelValue": 4095,
        "MRAcquisitionType": "2D",
        "MagneticFieldStrength": 6.98,
        "Manufacturer": "SIEMENS",
        "ManufacturerModelName": "Investigational_Device_7T",
        "Modality": "MR",
        "NumberOfAverages": 1.0,
        "NumberOfPhaseEncodingSteps": 94,
        "PercentPhaseFieldOfView": 100.0,
        "PercentSampling": 100.0,
        "PerformedProcedureStepStartTime": "125235.937000",
        "PhotometricInterpretation": "MONOCHROME2",
        "PixelBandwidth": 2003.0,
        "PixelRepresentation": 0,
        "PixelSpacing": [
          2.0,
          2.0
        ],
        "PositionReferenceIndicator": "",
        "ProtocolName": "NIH_EPI_2.0iso_TR2_Run10",
        "RepetitionTime": 2000.0,
        "Rows": 768,
        "SAR": 0.07347115807071,
        "SamplesPerPixel": 1,
        "ScanningSequence": "EP",
        "SequenceName": "epfid2d1_96",
        "SequenceVariant": "SK",
        "SeriesDescription": "NIH_EPI_2.0iso_TR2_Run10",
        "SeriesNumber": 14,
        "SliceLocation": -44.842473382871,
        "SliceThickness": 2.0,
        "SmallestImagePixelValue": 0,
        "SoftwareVersions": "syngo MR B17",
        "SpacingBetweenSlices": 1.9999999415377,
        "TransmitCoilName": "32Ch_Head_7T",
        "VariableFlipAngleFlag": "N",
        "WindowCenterWidthExplanation": "Algo1",
        "dBdt": 0.0
      },
      "slices": {}
    },
    "modality": "bold",
    "run_id": 11,
    "session_id": "06",
    "subject_id": "002",
    "task_id": "FullFovNoAttentionTask",
    "time": {
      "samples": {
        "AcquisitionNumber": [
          1,
          2,
          3,
          4,
          5,
          6,
          7,
          8,
          9,
          10,
          11,
          12,
          13,
          14,
          15,
          16,
          17,
          18,
          19,
          20,
          21,
          22,
          23,
          24,
          25,
          26,
          27,
          28,
          29,
          30,
          31,
          32,
          33,
          34,
          35,
          36,
          37,
          38,
          39,
          40,
          41,
          42,
          43,
          44,
          45,
          46,
          47,
          48,
          49,
          50,
          51,
          52,
          53,
          54,
          55,
          56,
          57,
          58,
          59,
          60,
          61,
          62,
          63,
          64,
          65,
          66,
          67,
          68,
          69,
          70,
          71,
          72,
          73,
          74,
          75,
          76,
          77,
          78,
          79,
          80,
          81,
          82,
          83,
          84,
          85,
          86,
          87,
          88,
          89,
          90,
          91,
          92,
          93,
          94,
          95,
          96,
          97,
          98,
          99,
          100,
          101,
          102,
          103,
          104,
          105,
          106,
          107,
          108,
          109,
          110,
          111,
          112,
          113,
          114,
          115,
          116,
          117,
          118,
          119,
          120,
          121,
          122,
          123,
          124,
          125,
          126,
          127,
          128,
          129,
          130,
          131,
          132,
          133,
          134,
          135,
          136,
          137,
          138,
          139,
          140,
          141,
          142,
          143,
          144,
          145,
          146,
          147,
          148,
          149,
          150,
          151,
          152,
          153,
          154,
          155,
          156,
          157,
          158,
          159,
          160,
          161,
          162,
          163,
          164
        ],
        "AcquisitionTime": [
          "135946.650000",
          "135950.667500",
          "135952.675000",
          "135954.682500",
          "135956.690000",
          "135958.697500",
          "140000.707500",
          "140002.715000",
          "140004.722500",
          "140006.730000",
          "140008.740000",
          "140010.747500",
          "140012.755000",
          "140014.762500",
          "140016.770000",
          "140018.780000",
          "140020.787500",
          "140022.795000",
          "140024.802500",
          "140026.810000",
          "140028.820000",
          "140030.827500",
          "140032.835000",
          "140034.842500",
          "140036.852500",
          "140038.860000",
          "140040.867500",
          "140042.875000",
          "140044.882500",
          "140046.892500",
          "140048.900000",
          "140050.907500",
          "140052.915000",
          "140054.922500",
          "140056.932500",
          "140058.940000",
          "140100.947500",
          "140102.955000",
          "140104.962500",
          "140106.972500",
          "140108.980000",
          "140110.987500",
          "140112.995000",
          "140115.005000",
          "140117.012500",
          "140119.020000",
          "140121.027500",
          "140123.035000",
          "140125.045000",
          "140127.052500",
          "140129.060000",
          "140131.067500",
          "140133.075000",
          "140135.085000",
          "140137.092500",
          "140139.100000",
          "140141.107500",
          "140143.117500",
          "140145.125000",
          "140147.132500",
          "140149.140000",
          "140151.147500",
          "140153.157500",
          "140155.165000",
          "140157.172500",
          "140159.180000",
          "140201.187500",
          "140203.197500",
          "140205.205000",
          "140207.212500",
          "140209.220000",
          "140211.230000",
          "140213.237500",
          "140215.245000",
          "140217.252500",
          "140219.260000",
          "140221.270000",
          "140223.277500",
          "140225.285000",
          "140227.292500",
          "140229.300000",
          "140231.310000",
          "140233.317500",
          "140235.325000",
          "140237.332500",
          "140239.342500",
          "140241.350000",
          "140243.357500",
          "140245.365000",
          "140247.372500",
          "140249.382500",
          "140251.390000",
          "140253.397500",
          "140255.405000",
          "140257.412500",
          "140259.422500",
          "140301.430000",
          "140303.437500",
          "140305.445000",
          "140307.452500",
          "140309.462500",
          "140311.470000",
          "140313.477500",
          "140315.485000",
          "140317.495000",
          "140319.502500",
          "140321.510000",
          "140323.517500",
          "140325.525000",
          "140327.535000",
          "140329.542500",
          "140331.550000",
          "140333.557500",
          "140335.565000",
          "140337.575000",
          "140339.582500",
          "140341.590000",
          "140343.597500",
          "140345.607500",
          "140347.615000",
          "140349.622500",
          "140351.630000",
          "140353.637500",
          "140355.647500",
          "140357.655000",
          "140359.662500",
          "140401.670000",
          "140403.677500",
          "140405.687500",
          "140407.695000",
          "140409.702500",
          "140411.710000",
          "140413.720000",
          "140415.727500",
          "140417.735000",
          "140419.742500",
          "140421.750000",
          "140423.760000",
          "140425.767500",
          "140427.775000",
          "140429.782500",
          "140431.790000",
          "140433.800000",
          "140435.807500",
          "140437.815000",
          "140439.822500",
          "140441.830000",
          "140443.840000",
          "140445.847500",
          "140447.855000",
          "140449.862500",
          "140451.872500",
          "140453.880000",
          "140455.887500",
          "140457.895000",
          "140459.902500",
          "140501.912500",
          "140503.920000",
          "140505.927500",
          "140507.935000",
          "140509.942500",
          "140511.952500",
          "140513.960000",
          "140515.967500"
        ],
        "ContentTime": [
          "140038.515000",
          "140038.531000",
          "140038.531000",
          "140038.531000",
          "140038.531000",
          "140038.531000",
          "140038.531000",
          "140038.546000",
          "140038.546000",
          "140038.546000",
          "140038.546000",
          "140038.546000",
          "140038.546000",
          "140038.562000",
          "140038.562000",
          "140038.562000",
          "140038.562000",
          "140038.562000",
          "140038.562000",
          "140038.578000",
          "140038.578000",
          "140038.578000",
          "140038.578000",
          "140038.578000",
          "140038.578000",
          "140118.515000",
          "140118.515000",
          "140118.515000",
          "140118.515000",
          "140118.531000",
          "140118.531000",
          "140118.531000",
          "140118.531000",
          "140118.531000",
          "140118.531000",
          "140118.531000",
          "140118.546000",
          "140118.546000",
          "140118.546000",
          "140118.546000",
          "140118.546000",
          "140118.546000",
          "140118.562000",
          "140118.562000",
          "140118.562000",
          "140158.515000",
          "140158.515000",
          "140158.515000",
          "140158.515000",
          "140158.515000",
          "140158.531000",
          "140158.531000",
          "140158.531000",
          "140158.531000",
          "140158.531000",
          "140158.531000",
          "140158.546000",
          "140158.546000",
          "140158.546000",
          "140158.562000",
          "140158.562000",
          "140158.562000",
          "140158.562000",
          "140158.578000",
          "140158.578000",
          "140238.515000",
          "140238.515000",
          "140238.531000",
          "140238.531000",
          "140238.531000",
          "140238.531000",
          "140238.531000",
          "140238.531000",
          "140238.531000",
          "140238.546000",
          "140238.546000",
          "140238.546000",
          "140238.546000",
          "140238.546000",
          "140238.546000",
          "140238.562000",
          "140238.562000",
          "140238.562000",
          "140238.562000",
          "140238.562000",
          "140318.515000",
          "140318.515000",
          "140318.515000",
          "140318.515000",
          "140318.515000",
          "140318.531000",
          "140318.531000",
          "140318.531000",
          "140318.531000",
          "140318.531000",
          "140318.546000",
          "140318.546000",
          "140318.562000",
          "140318.562000",
          "140318.562000",
          "140318.562000",
          "140318.562000",
          "140318.562000",
          "140318.578000",
          "140318.578000",
          "140358.515000",
          "140358.515000",
          "140358.515000",
          "140358.531000",
          "140358.531000",
          "140358.531000",
          "140358.531000",
          "140358.531000",
          "140358.531000",
          "140358.546000",
          "140358.546000",
          "140358.546000",
          "140358.546000",
          "140358.546000",
          "140358.546000",
          "140358.546000",
          "140358.562000",
          "140358.562000",
          "140358.562000",
          "140358.562000",
          "140438.515000",
          "140438.531000",
          "140438.531000",
          "140438.546000",
          "140438.546000",
          "140438.546000",
          "140438.546000",
          "140438.546000",
          "140438.546000",
          "140438.546000",
          "140438.562000",
          "140438.562000",
          "140438.578000",
          "140438.578000",
          "140438.578000",
          "140438.578000",
          "140438.578000",
          "140438.578000",
          "140438.578000",
          "140438.593000",
          "140516.203000",
          "140516.203000",
          "140516.203000",
          "140516.203000",
          "140516.218000",
          "140516.218000",
          "140516.218000",
          "140516.218000",
          "140516.218000",
          "140516.218000",
          "140516.218000",
          "140516.234000",
          "140516.234000",
          "140516.234000",
          "140516.234000",
          "140516.234000",
          "140516.234000",
          "140516.234000",
          "140516.250000"
        ],
        "InstanceCreationTime": [
          "140038.515000",
          "140038.531000",
          "140038.531000",
          "140038.531000",
          "140038.531000",
          "140038.531000",
          "140038.531000",
          "140038.546000",
          "140038.546000",
          "140038.546000",
          "140038.546000",
          "140038.546000",
          "140038.546000",
          "140038.562000",
          "140038.562000",
          "140038.562000",
          "140038.562000",
          "140038.562000",
          "140038.562000",
          "140038.578000",
          "140038.578000",
          "140038.578000",
          "140038.578000",
          "140038.578000",
          "140038.578000",
          "140118.515000",
          "140118.515000",
          "140118.515000",
          "140118.515000",
          "140118.531000",
          "140118.531000",
          "140118.531000",
          "140118.531000",
          "140118.531000",
          "140118.531000",
          "140118.531000",
          "140118.546000",
          "140118.546000",
          "140118.546000",
          "140118.546000",
          "140118.546000",
          "140118.546000",
          "140118.562000",
          "140118.562000",
          "140118.562000",
          "140158.515000",
          "140158.515000",
          "140158.515000",
          "140158.515000",
          "140158.515000",
          "140158.531000",
          "140158.531000",
          "140158.531000",
          "140158.531000",
          "140158.531000",
          "140158.531000",
          "140158.546000",
          "140158.546000",
          "140158.546000",
          "140158.562000",
          "140158.562000",
          "140158.562000",
          "140158.562000",
          "140158.578000",
          "140158.578000",
          "140238.515000",
          "140238.515000",
          "140238.531000",
          "140238.531000",
          "140238.531000",
          "140238.531000",
          "140238.531000",
          "140238.531000",
          "140238.531000",
          "140238.546000",
          "140238.546000",
          "140238.546000",
          "140238.546000",
          "140238.546000",
          "140238.546000",
          "140238.562000",
          "140238.562000",
          "140238.562000",
          "140238.562000",
          "140238.562000",
          "140318.515000",
          "140318.515000",
          "140318.515000",
          "140318.515000",
          "140318.515000",
          "140318.531000",
          "140318.531000",
          "140318.531000",
          "140318.531000",
          "140318.531000",
          "140318.546000",
          "140318.546000",
          "140318.562000",
          "140318.562000",
          "140318.562000",
          "140318.562000",
          "140318.562000",
          "140318.562000",
          "140318.578000",
          "140318.578000",
          "140358.515000",
          "140358.515000",
          "140358.515000",
          "140358.531000",
          "140358.531000",
          "140358.531000",
          "140358.531000",
          "140358.531000",
          "140358.531000",
          "140358.546000",
          "140358.546000",
          "140358.546000",
          "140358.546000",
          "140358.546000",
          "140358.546000",
          "140358.546000",
          "140358.562000",
          "140358.562000",
          "140358.562000",
          "140358.562000",
          "140438.515000",
          "140438.531000",
          "140438.531000",
          "140438.546000",
          "140438.546000",
          "140438.546000",
          "140438.546000",
          "140438.546000",
          "140438.546000",
          "140438.546000",
          "140438.562000",
          "140438.562000",
          "140438.578000",
          "140438.578000",
          "140438.578000",
          "140438.578000",
          "140438.578000",
          "140438.578000",
          "140438.578000",
          "140438.593000",
          "140516.203000",
          "140516.203000",
          "140516.203000",
          "140516.203000",
          "140516.218000",
          "140516.218000",
          "140516.218000",
          "140516.218000",
          "140516.218000",
          "140516.218000",
          "140516.218000",
          "140516.234000",
          "140516.234000",
          "140516.234000",
          "140516.234000",
          "140516.234000",
          "140516.234000",
          "140516.234000",
          "140516.250000"
        ],
        "InstanceNumber": [
          1,
          2,
          3,
          4,
          5,
          6,
          7,
          8,
          9,
          10,
          11,
          12,
          13,
          14,
          15,
          16,
          17,
          18,
          19,
          20,
          21,
          22,
          23,
          24,
          25,
          26,
          27,
          28,
          29,
          30,
          31,
          32,
          33,
          34,
          35,
          36,
          37,
          38,
          39,
          40,
          41,
          42,
          43,
          44,
          45,
          46,
          47,
          48,
          49,
          50,
          51,
          52,
          53,
          54,
          55,
          56,
          57,
          58,
          59,
          60,
          61,
          62,
          63,
          64,
          65,
          66,
          67,
          68,
          69,
          70,
          71,
          72,
          73,
          74,
          75,
          76,
          77,
          78,
          79,
          80,
          81,
          82,
          83,
          84,
          85,
          86,
          87,
          88,
          89,
          90,
          91,
          92,
          93,
          94,
          95,
          96,
          97,
          98,
          99,
          100,
          101,
          102,
          103,
          104,
          105,
          106,
          107,
          108,
          109,
          110,
          111,
          112,
          113,
          114,
          115,
          116,
          117,
          118,
          119,
          120,
          121,
          122,
          123,
          124,
          125,
          126,
          127,
          128,
          129,
          130,
          131,
          132,
          133,
          134,
          135,
          136,
          137,
          138,
          139,
          140,
          141,
          142,
          143,
          144,
          145,
          146,
          147,
          148,
          149,
          150,
          151,
          152,
          153,
          154,
          155,
          156,
          157,
          158,
          159,
          160,
          161,
          162,
          163,
          164
        ],
        "WindowCenter": [
          1032.0,
          1030.0,
          1030.0,
          1030.0,
          1029.0,
          1029.0,
          1031.0,
          1029.0,
          1029.0,
          1030.0,
          1029.0,
          1031.0,
          1030.0,
          1031.0,
          1031.0,
          1031.0,
          1032.0,
          1033.0,
          1032.0,
          1028.0,
          1030.0,
          1030.0,
          1029.0,
          1030.0,
          1030.0,
          1031.0,
          1030.0,
          1031.0,
          1031.0,
          1030.0,
          1031.0,
          1032.0,
          1032.0,
          1032.0,
          1031.0,
          1032.0,
          1031.0,
          1031.0,
          1029.0,
          1031.0,
          1031.0,
          1031.0,
          1029.0,
          1029.0,
          1031.0,
          1032.0,
          1031.0,
          1030.0,
          1031.0,
          1031.0,
          1031.0,
          1031.0,
          1032.0,
          1031.0,
          1032.0,
          1030.0,
          1032.0,
          1032.0,
          1029.0,
          1029.0,
          1029.0,
          1032.0,
          1031.0,
          1031.0,
          1029.0,
          1028.0,
          1032.0,
          1031.0,
          1031.0,
          1031.0,
          1028.0,
          1030.0,
          1032.0,
          1029.0,
          1031.0,
          1032.0,
          1031.0,
          1032.0,
          1030.0,
          1030.0,
          1030.0,
          1029.0,
          1030.0,
          1030.0,
          1030.0,
          1030.0,
          1031.0,
          1032.0,
          1032.0,
          1031.0,
          1030.0,
          1034.0,
          1033.0,
          1032.0,
          1031.0,
          1032.0,
          1032.0,
          1033.0,
          1033.0,
          1031.0,
          1032.0,
          1030.0,
          1032.0,
          1032.0,
          1031.0,
          1033.0,
          1032.0,
          1034.0,
          1035.0,
          1034.0,
          1031.0,
          1030.0,
          1033.0,
          1034.0,
          1033.0,
          1032.0,
          1031.0,
          1032.0,
          1033.0,
          1032.0,
          1032.0,
          1031.0,
          1031.0,
          1031.0,
          1031.0,
          1032.0,
          1033.0,
          1032.0,
          1032.0,
          1031.0,
          1032.0,
          1031.0,
          1032.0,
          1032.0,
          1033.0,
          1033.0,
          1032.0,
          1032.0,
          1032.0,
          1032.0,
          1032.0,
          1032.0,
          1031.0,
          1031.0,
          1033.0,
          1033.0,
          1033.0,
          1033.0,
          1032.0,
          1034.0,
          1034.0,
          1035.0,
          1037.0,
          1035.0,
          1035.0,
          1034.0,
          1035.0,
          1035.0,
          1035.0,
          1032.0,
          1031.0,
          1033.0,
          1035.0,
          1034.0
        ],
        "WindowWidth": [
          2720.0,
          2706.0,
          2710.0,
          2712.0,
          2706.0,
          2714.0,
          2715.0,
          2703.0,
          2710.0,
          2712.0,
          2703.0,
          2715.0,
          2709.0,
          2715.0,
          2714.0,
          2713.0,
          2723.0,
          2724.0,
          2717.0,
          2703.0,
          2718.0,
          2714.0,
          2711.0,
          2712.0,
          2709.0,
          2716.0,
          2709.0,
          2715.0,
          2713.0,
          2713.0,
          2717.0,
          2720.0,
          2719.0,
          2719.0,
          2717.0,
          2721.0,
          2724.0,
          2723.0,
          2711.0,
          2723.0,
          2722.0,
          2722.0,
          2711.0,
          2710.0,
          2724.0,
          2728.0,
          2719.0,
          2720.0,
          2720.0,
          2720.0,
          2720.0,
          2715.0,
          2721.0,
          2716.0,
          2720.0,
          2718.0,
          2723.0,
          2720.0,
          2708.0,
          2704.0,
          2710.0,
          2722.0,
          2718.0,
          2719.0,
          2711.0,
          2709.0,
          2724.0,
          2716.0,
          2721.0,
          2720.0,
          2709.0,
          2718.0,
          2721.0,
          2709.0,
          2720.0,
          2718.0,
          2710.0,
          2722.0,
          2714.0,
          2705.0,
          2706.0,
          2708.0,
          2715.0,
          2713.0,
          2707.0,
          2708.0,
          2710.0,
          2716.0,
          2714.0,
          2709.0,
          2711.0,
          2720.0,
          2712.0,
          2717.0,
          2711.0,
          2718.0,
          2719.0,
          2718.0,
          2717.0,
          2709.0,
          2718.0,
          2711.0,
          2720.0,
          2714.0,
          2705.0,
          2719.0,
          2711.0,
          2724.0,
          2729.0,
          2722.0,
          2706.0,
          2705.0,
          2720.0,
          2723.0,
          2716.0,
          2713.0,
          2711.0,
          2713.0,
          2711.0,
          2710.0,
          2714.0,
          2708.0,
          2711.0,
          2708.0,
          2715.0,
          2717.0,
          2712.0,
          2720.0,
          2715.0,
          2710.0,
          2718.0,
