{
  "aor": 0.001649939024390244,
  "aqi": 0.008366868353658534,
  "bids_meta": {
    "AcquisitionMatrixPE": 96,
    "AcquisitionNumber": 1,
    "AcquisitionTime": "13:27:51.630000",
    "BandwidthPerPixelPhaseEncode": 52.083,
    "BaseResolution": 96,
    "ConversionSoftware": "dcm2niix",
    "ConversionSoftwareVersion": "v1.0.20180622 GCC6.3.0",
    "DerivedVendorReportedEchoSpacing": 0.000600004,
    "DeviceSerialNumber": "18926",
    "DwellTime": 2.6e-06,
    "EchoTime": 0.025,
    "EffectiveEchoSpacing": 0.000200001,
    "FlipAngle": 50,
    "ImageOrientationPatientDICOM": [
      0.999992,
      0.00067012,
      0.00404905,
      2.11009e-10,
      0.98658,
      -0.16328
    ],
    "ImageType": [
      "ORIGINAL",
      "PRIMARY",
      "M",
      "ND",
      "ECHO",
      "00",
      "MOSAIC"
    ],
    "InPlanePhaseEncodingDirectionDICOM": "ROW",
    "InstitutionName": "NIMH",
    "InstitutionalDepartmentName": "Department",
    "MRAcquisitionType": "2D",
    "MagneticFieldStrength": 6.98,
    "Manufacturer": "Siemens",
    "ManufacturersModelName": "Investigational_Device_7T",
    "Modality": "MR",
    "ParallelReductionFactorInPlane": 3,
    "PartialFourier": 1,
    "PatientPosition": "HFS",
    "PercentPhaseFOV": 100,
    "PhaseEncodingDirection": "i",
    "PhaseEncodingSteps": 94,
    "PhaseResolution": 1,
    "PixelBandwidth": 2003,
    "ProcedureStepDescription": "UserProtocols_FMRIF_Templates",
    "ProtocolName": "NIH_EPI_2.0iso_TR2_Run05",
    "PulseSequenceDetails": "%CustomerSeq%_inati_nih_epi",
    "ReceiveCoilName": "32Ch_Head_7T",
    "ReconMatrixPE": 96,
    "RepetitionTime": 2,
    "SAR": 0.0734712,
    "ScanningSequence": "EP",
    "SequenceName": "epfid2d1_96",
    "SequenceVariant": "SK",
    "SeriesDescription": "NIH_EPI_2.0iso_TR2_Run05",
    "SeriesNumber": 9,
    "ShimSetting": [
      -115,
      266,
      1196,
      1579,
      -89,
      563,
      139,
      -272
    ],
    "SliceThickness": 2,
    "SliceTiming": [
      1.005,
      0,
      1.04,
      0.0375,
      1.0775,
      0.075,
      1.115,
      0.1125,
      1.1525,
      0.15,
      1.19,
      0.185,
      1.2275,
      0.2225,
      1.265,
      0.26,
      1.3025,
      0.2975,
      1.3375,
      0.335,
      1.375,
      0.3725,
      1.4125,
      0.41,
      1.45,
      0.4475,
      1.4875,
      0.4825,
      1.525,
      0.52,
      1.5625,
      0.5575,
      1.6,
      0.595,
      1.635,
      0.6325,
      1.6725,
      0.67,
      1.71,
      0.7075,
      1.7475,
      0.7425,
      1.785,
      0.78,
      1.8225,
      0.8175,
      1.86,
      0.855,
      1.8975,
      0.8925,
      1.9325,
      0.93,
      1.97,
      0.9675
    ],
    "SoftwareVersions": "syngo_MR_B17",
    "SpacingBetweenSlices": 2,
    "StationName": "FMRIFD7T",
    "TaskName": "FullFovNoAttentionTask",
    "TotalReadoutTime": 0.0190001,
    "TxRefAmp": 270,
    "dataset": "ds001555",
    "dcmmeta_affine": [
      [
        -1.9999831914901733,
        4.2201880878778297e-10,
        0.008208253420889378,
        95.76705169677734
      ],
      [
        -0.0013402394251897931,
        1.973159670829773,
        -0.32655632495880127,
        -59.74467468261719
      ],
      [
        0.008098097518086433,
        0.32655906677246094,
        1.9731429815292358,
        -55.7390022277832
      ],
      [
        0.0,
        0.0,
        0.0,
        1.0
      ]
    ],
    "dcmmeta_reorient_transform": [
      [
        0.0,
        -1.0,
        0.0,
        95.0
      ],
      [
        1.0,
        0.0,
        0.0,
        0.0
      ],
      [
        0.0,
        0.0,
        1.0,
        0.0
      ],
      [
        0.0,
        0.0,
        0.0,
        1.0
      ]
    ],
    "dcmmeta_shape": [
      96,
      96,
      54,
      164
    ],
    "dcmmeta_slice_dim": 2,
    "dcmmeta_version": 0.6,
    "global": {
      "const": {
        "AcquisitionMatrix": [
          0,
          96,
          96,
          0
        ],
        "AngioFlag": "N",
        "BitsAllocated": 16,
        "BitsStored": 12,
        "Columns": 768,
        "EchoNumbers": 1,
        "EchoTime": 25.0,
        "EchoTrainLength": 1,
        "FlipAngle": 50.0,
        "HighBit": 11,
        "ImageOrientationPatient": [
          0.99999157803662,
          0.00067011969073,
          0.00404904870684,
          2.110094e-10,
          0.98657984636313,
          -0.1632795356133
        ],
        "ImagePositionPatient": [
          -767.761392775,
          -791.1374745092,
          82.286995969312
        ],
        "ImageType": [
          "ORIGINAL",
          "PRIMARY",
          "M",
          "ND",
          "ECHO_00",
          "MOSAIC"
        ],
        "ImagedNucleus": "1H",
        "ImagingFrequency": 297.205025,
        "InPlanePhaseEncodingDirection": "ROW",
        "LargestImagePixelValue": 4095,
        "MRAcquisitionType": "2D",
        "MagneticFieldStrength": 6.98,
        "Manufacturer": "SIEMENS",
        "ManufacturerModelName": "Investigational_Device_7T",
        "Modality": "MR",
        "NumberOfAverages": 1.0,
        "NumberOfPhaseEncodingSteps": 94,
        "PercentPhaseFieldOfView": 100.0,
        "PercentSampling": 100.0,
        "PerformedProcedureStepStartTime": "125235.937000",
        "PhotometricInterpretation": "MONOCHROME2",
        "PixelBandwidth": 2003.0,
        "PixelRepresentation": 0,
        "PixelSpacing": [
          2.0,
          2.0
        ],
        "PositionReferenceIndicator": "",
        "ProtocolName": "NIH_EPI_2.0iso_TR2_Run05",
        "RepetitionTime": 2000.0,
        "Rows": 768,
        "SAR": 0.07347115807071,
        "SamplesPerPixel": 1,
        "ScanningSequence": "EP",
        "SequenceName": "epfid2d1_96",
        "SequenceVariant": "SK",
        "SeriesDescription": "NIH_EPI_2.0iso_TR2_Run05",
        "SeriesNumber": 9,
        "SliceLocation": -44.842473382871,
        "SliceThickness": 2.0,
        "SmallestImagePixelValue": 0,
        "SoftwareVersions": "syngo MR B17",
        "SpacingBetweenSlices": 1.9999999415377,
        "TransmitCoilName": "32Ch_Head_7T",
        "VariableFlipAngleFlag": "N",
        "WindowCenterWidthExplanation": "Algo1",
        "dBdt": 0.0
      },
      "slices": {}
    },
    "modality": "bold",
    "run_id": 6,
    "session_id": "06",
    "subject_id": "002",
    "task_id": "FullFovNoAttentionTask",
    "time": {
      "samples": {
        "AcquisitionNumber": [
          1,
          2,
          3,
          4,
          5,
          6,
          7,
          8,
          9,
          10,
          11,
          12,
          13,
          14,
          15,
          16,
          17,
          18,
          19,
          20,
          21,
          22,
          23,
          24,
          25,
          26,
          27,
          28,
          29,
          30,
          31,
          32,
          33,
          34,
          35,
          36,
          37,
          38,
          39,
          40,
          41,
          42,
          43,
          44,
          45,
          46,
          47,
          48,
          49,
          50,
          51,
          52,
          53,
          54,
          55,
          56,
          57,
          58,
          59,
          60,
          61,
          62,
          63,
          64,
          65,
          66,
          67,
          68,
          69,
          70,
          71,
          72,
          73,
          74,
          75,
          76,
          77,
          78,
          79,
          80,
          81,
          82,
          83,
          84,
          85,
          86,
          87,
          88,
          89,
          90,
          91,
          92,
          93,
          94,
          95,
          96,
          97,
          98,
          99,
          100,
          101,
          102,
          103,
          104,
          105,
          106,
          107,
          108,
          109,
          110,
          111,
          112,
          113,
          114,
          115,
          116,
          117,
          118,
          119,
          120,
          121,
          122,
          123,
          124,
          125,
          126,
          127,
          128,
          129,
          130,
          131,
          132,
          133,
          134,
          135,
          136,
          137,
          138,
          139,
          140,
          141,
          142,
          143,
          144,
          145,
          146,
          147,
          148,
          149,
          150,
          151,
          152,
          153,
          154,
          155,
          156,
          157,
          158,
          159,
          160,
          161,
          162,
          163,
          164
        ],
        "AcquisitionTime": [
          "132751.630000",
          "132755.645000",
          "132757.652500",
          "132759.660000",
          "132801.670000",
          "132803.677500",
          "132805.685000",
          "132807.692500",
          "132809.702500",
          "132811.710000",
          "132813.717500",
          "132815.725000",
          "132817.732500",
          "132819.742500",
          "132821.750000",
          "132823.757500",
          "132825.765000",
          "132827.772500",
          "132829.782500",
          "132831.790000",
          "132833.797500",
          "132835.805000",
          "132837.812500",
          "132839.822500",
          "132841.830000",
          "132843.837500",
          "132845.845000",
          "132847.855000",
          "132849.862500",
          "132851.870000",
          "132853.877500",
          "132855.885000",
          "132857.895000",
          "132859.902500",
          "132901.910000",
          "132903.917500",
          "132905.925000",
          "132907.935000",
          "132909.942500",
          "132911.950000",
          "132913.957500",
          "132915.967500",
          "132917.975000",
          "132919.982500",
          "132921.990000",
          "132923.997500",
          "132926.007500",
          "132928.015000",
          "132930.022500",
          "132932.030000",
          "132934.037500",
          "132936.047500",
          "132938.055000",
          "132940.062500",
          "132942.070000",
          "132944.080000",
          "132946.087500",
          "132948.095000",
          "132950.102500",
          "132952.110000",
          "132954.120000",
          "132956.127500",
          "132958.135000",
          "133000.142500",
          "133002.150000",
          "133004.160000",
          "133006.167500",
          "133008.175000",
          "133010.182500",
          "133012.190000",
          "133014.200000",
          "133016.207500",
          "133018.215000",
          "133020.222500",
          "133022.232500",
          "133024.240000",
          "133026.247500",
          "133028.255000",
          "133030.262500",
          "133032.272500",
          "133034.280000",
          "133036.287500",
          "133038.295000",
          "133040.302500",
          "133042.312500",
          "133044.320000",
          "133046.327500",
          "133048.335000",
          "133050.345000",
          "133052.352500",
          "133054.360000",
          "133056.367500",
          "133058.375000",
          "133100.385000",
          "133102.392500",
          "133104.400000",
          "133106.407500",
          "133108.415000",
          "133110.425000",
          "133112.432500",
          "133114.440000",
          "133116.447500",
          "133118.457500",
          "133120.465000",
          "133122.472500",
          "133124.480000",
          "133126.487500",
          "133128.497500",
          "133130.505000",
          "133132.512500",
          "133134.520000",
          "133136.527500",
          "133138.537500",
          "133140.545000",
          "133142.552500",
          "133144.560000",
          "133146.567500",
          "133148.577500",
          "133150.585000",
          "133152.592500",
          "133154.600000",
          "133156.610000",
          "133158.617500",
          "133200.625000",
          "133202.632500",
          "133204.640000",
          "133206.650000",
          "133208.657500",
          "133210.665000",
          "133212.672500",
          "133214.680000",
          "133216.690000",
          "133218.697500",
          "133220.705000",
          "133222.712500",
          "133224.722500",
          "133226.730000",
          "133228.737500",
          "133230.745000",
          "133232.752500",
          "133234.762500",
          "133236.770000",
          "133238.777500",
          "133240.785000",
          "133242.792500",
          "133244.802500",
          "133246.810000",
          "133248.817500",
          "133250.825000",
          "133252.835000",
          "133254.842500",
          "133256.850000",
          "133258.857500",
          "133300.865000",
          "133302.875000",
          "133304.882500",
          "133306.890000",
          "133308.897500",
          "133310.905000",
          "133312.915000",
          "133314.922500",
          "133316.930000",
          "133318.937500",
          "133320.947500"
        ],
        "ContentTime": [
          "132842.453000",
          "132842.468000",
          "132842.468000",
          "132842.468000",
          "132842.468000",
          "132842.468000",
          "132842.468000",
          "132842.484000",
          "132842.484000",
          "132842.484000",
          "132842.484000",
          "132842.484000",
          "132842.484000",
          "132842.500000",
          "132842.500000",
          "132842.500000",
          "132842.500000",
          "132842.500000",
          "132842.500000",
          "132842.500000",
          "132842.515000",
          "132842.515000",
          "132842.515000",
          "132842.515000",
          "132922.453000",
          "132922.453000",
          "132922.453000",
          "132922.468000",
          "132922.468000",
          "132922.468000",
          "132922.468000",
          "132922.468000",
          "132922.468000",
          "132922.484000",
          "132922.484000",
          "132922.484000",
          "132922.484000",
          "132922.484000",
          "132922.484000",
          "132922.484000",
          "132922.500000",
          "132922.500000",
          "132922.500000",
          "132922.500000",
          "133002.453000",
          "133002.453000",
          "133002.453000",
          "133002.453000",
          "133002.453000",
          "133002.468000",
          "133002.468000",
          "133002.468000",
          "133002.468000",
          "133002.468000",
          "133002.468000",
          "133002.468000",
          "133002.484000",
          "133002.484000",
          "133002.484000",
          "133002.484000",
          "133002.484000",
          "133002.484000",
          "133002.500000",
          "133002.500000",
          "133042.453000",
          "133042.453000",
          "133042.453000",
          "133042.453000",
          "133042.453000",
          "133042.468000",
          "133042.468000",
          "133042.468000",
          "133042.468000",
          "133042.484000",
          "133042.484000",
          "133042.484000",
          "133042.484000",
          "133042.484000",
          "133042.500000",
          "133042.500000",
          "133042.500000",
          "133042.500000",
          "133042.500000",
          "133042.500000",
          "133122.453000",
          "133122.453000",
          "133122.453000",
          "133122.453000",
          "133122.453000",
          "133122.468000",
          "133122.468000",
          "133122.468000",
          "133122.468000",
          "133122.468000",
          "133122.468000",
          "133122.468000",
          "133122.484000",
          "133122.484000",
          "133122.484000",
          "133122.484000",
          "133122.484000",
          "133122.484000",
          "133122.500000",
          "133122.500000",
          "133202.453000",
          "133202.453000",
          "133202.453000",
          "133202.453000",
          "133202.453000",
          "133202.468000",
          "133202.468000",
          "133202.468000",
          "133202.484000",
          "133202.484000",
          "133202.484000",
          "133202.484000",
          "133202.484000",
          "133202.484000",
          "133202.484000",
          "133202.500000",
          "133202.500000",
          "133202.500000",
          "133202.500000",
          "133202.500000",
          "133242.453000",
          "133242.453000",
          "133242.453000",
          "133242.453000",
          "133242.453000",
          "133242.468000",
          "133242.468000",
          "133242.468000",
          "133242.468000",
          "133242.468000",
          "133242.468000",
          "133242.468000",
          "133242.484000",
          "133242.484000",
          "133242.484000",
          "133242.484000",
          "133242.484000",
          "133242.484000",
          "133242.500000",
          "133242.500000",
          "133321.375000",
          "133321.375000",
          "133321.390000",
          "133321.390000",
          "133321.390000",
          "133321.390000",
          "133321.390000",
          "133321.390000",
          "133321.406000",
          "133321.406000",
          "133321.406000",
          "133321.421000",
          "133321.421000",
          "133321.421000",
          "133321.421000",
          "133321.421000",
          "133321.421000",
          "133321.421000",
          "133321.437000",
          "133321.437000"
        ],
        "InstanceCreationTime": [
          "132842.453000",
          "132842.468000",
          "132842.468000",
          "132842.468000",
          "132842.468000",
          "132842.468000",
          "132842.468000",
          "132842.484000",
          "132842.484000",
          "132842.484000",
          "132842.484000",
          "132842.484000",
          "132842.484000",
          "132842.500000",
          "132842.500000",
          "132842.500000",
          "132842.500000",
          "132842.500000",
          "132842.500000",
          "132842.500000",
          "132842.515000",
          "132842.515000",
          "132842.515000",
          "132842.515000",
          "132922.453000",
          "132922.453000",
          "132922.453000",
          "132922.468000",
          "132922.468000",
          "132922.468000",
          "132922.468000",
          "132922.468000",
          "132922.468000",
          "132922.484000",
          "132922.484000",
          "132922.484000",
          "132922.484000",
          "132922.484000",
          "132922.484000",
          "132922.484000",
          "132922.500000",
          "132922.500000",
          "132922.500000",
          "132922.500000",
          "133002.453000",
          "133002.453000",
          "133002.453000",
          "133002.453000",
          "133002.453000",
          "133002.468000",
          "133002.468000",
          "133002.468000",
          "133002.468000",
          "133002.468000",
          "133002.468000",
          "133002.468000",
          "133002.484000",
          "133002.484000",
          "133002.484000",
          "133002.484000",
          "133002.484000",
          "133002.484000",
          "133002.500000",
          "133002.500000",
          "133042.453000",
          "133042.453000",
          "133042.453000",
          "133042.453000",
          "133042.453000",
          "133042.468000",
          "133042.468000",
          "133042.468000",
          "133042.468000",
          "133042.484000",
          "133042.484000",
          "133042.484000",
          "133042.484000",
          "133042.484000",
          "133042.500000",
          "133042.500000",
          "133042.500000",
          "133042.500000",
          "133042.500000",
          "133042.500000",
          "133122.453000",
          "133122.453000",
          "133122.453000",
          "133122.453000",
          "133122.453000",
          "133122.468000",
          "133122.468000",
          "133122.468000",
          "133122.468000",
          "133122.468000",
          "133122.468000",
          "133122.468000",
          "133122.484000",
          "133122.484000",
          "133122.484000",
          "133122.484000",
          "133122.484000",
          "133122.484000",
          "133122.500000",
          "133122.500000",
          "133202.453000",
          "133202.453000",
          "133202.453000",
          "133202.453000",
          "133202.453000",
          "133202.468000",
          "133202.468000",
          "133202.468000",
          "133202.484000",
          "133202.484000",
          "133202.484000",
          "133202.484000",
          "133202.484000",
          "133202.484000",
          "133202.484000",
          "133202.500000",
          "133202.500000",
          "133202.500000",
          "133202.500000",
          "133202.500000",
          "133242.453000",
          "133242.453000",
          "133242.453000",
          "133242.453000",
          "133242.453000",
          "133242.468000",
          "133242.468000",
          "133242.468000",
          "133242.468000",
          "133242.468000",
          "133242.468000",
          "133242.468000",
          "133242.484000",
          "133242.484000",
          "133242.484000",
          "133242.484000",
          "133242.484000",
          "133242.484000",
          "133242.500000",
          "133242.500000",
          "133321.375000",
          "133321.375000",
          "133321.390000",
          "133321.390000",
          "133321.390000",
          "133321.390000",
          "133321.390000",
          "133321.390000",
          "133321.406000",
          "133321.406000",
          "133321.406000",
          "133321.421000",
          "133321.421000",
          "133321.421000",
          "133321.421000",
          "133321.421000",
          "133321.421000",
          "133321.421000",
          "133321.437000",
          "133321.437000"
        ],
        "InstanceNumber": [
          1,
          2,
          3,
          4,
          5,
          6,
          7,
          8,
          9,
          10,
          11,
          12,
          13,
          14,
          15,
          16,
          17,
          18,
          19,
          20,
          21,
          22,
          23,
          24,
          25,
          26,
          27,
          28,
          29,
          30,
          31,
          32,
          33,
          34,
          35,
          36,
          37,
          38,
          39,
          40,
          41,
          42,
          43,
          44,
          45,
          46,
          47,
          48,
          49,
          50,
          51,
          52,
          53,
          54,
          55,
          56,
          57,
          58,
          59,
          60,
          61,
          62,
          63,
          64,
          65,
          66,
          67,
          68,
          69,
          70,
          71,
          72,
          73,
          74,
          75,
          76,
          77,
          78,
          79,
          80,
          81,
          82,
          83,
          84,
          85,
          86,
          87,
          88,
          89,
          90,
          91,
          92,
          93,
          94,
          95,
          96,
          97,
          98,
          99,
          100,
          101,
          102,
          103,
          104,
          105,
          106,
          107,
          108,
          109,
          110,
          111,
          112,
          113,
          114,
          115,
          116,
          117,
          118,
          119,
          120,
          121,
          122,
          123,
          124,
          125,
          126,
          127,
          128,
          129,
          130,
          131,
          132,
          133,
          134,
          135,
          136,
          137,
          138,
          139,
          140,
          141,
          142,
          143,
          144,
          145,
          146,
          147,
          148,
          149,
          150,
          151,
          152,
          153,
          154,
          155,
          156,
          157,
          158,
          159,
          160,
          161,
          162,
          163,
          164
        ],
        "WindowCenter": [
          1029.0,
          1028.0,
          1029.0,
          1029.0,
          1029.0,
          1029.0,
          1030.0,
          1030.0,
          1031.0,
          1030.0,
          1028.0,
          1030.0,
          1032.0,
          1031.0,
          1028.0,
          1030.0,
          1028.0,
          1026.0,
          1030.0,
          1029.0,
          1025.0,
          1024.0,
          1024.0,
          1026.0,
          1027.0,
          1025.0,
          1027.0,
          1028.0,
          1027.0,
          1027.0,
          1027.0,
          1028.0,
          1029.0,
          1027.0,
          1026.0,
          1025.0,
          1027.0,
          1027.0,
          1028.0,
          1027.0,
          1029.0,
          1028.0,
          1030.0,
          1029.0,
          1029.0,
          1028.0,
          1029.0,
          1029.0,
          1029.0,
          1029.0,
          1032.0,
          1030.0,
          1028.0,
          1027.0,
          1029.0,
          1029.0,
          1027.0,
          1028.0,
          1027.0,
          1028.0,
          1028.0,
          1030.0,
          1030.0,
          1030.0,
          1028.0,
          1028.0,
          1029.0,
          1028.0,
          1031.0,
          1029.0,
          1029.0,
          1031.0,
          1029.0,
          1028.0,
          1027.0,
          1029.0,
          1027.0,
          1030.0,
          1027.0,
          1028.0,
          1027.0,
          1030.0,
          1032.0,
          1031.0,
          1030.0,
          1030.0,
          1033.0,
          1034.0,
          1029.0,
          1030.0,
          1030.0,
          1029.0,
          1027.0,
          1029.0,
          1033.0,
          1033.0,
          1031.0,
          1033.0,
          1030.0,
          1028.0,
          1029.0,
          1028.0,
          1027.0,
          1028.0,
          1027.0,
          1029.0,
          1030.0,
          1028.0,
          1028.0,
          1028.0,
          1029.0,
          1027.0,
          1028.0,
          1028.0,
          1028.0,
          1028.0,
          1029.0,
          1028.0,
          1030.0,
          1030.0,
          1029.0,
          1029.0,
          1031.0,
          1031.0,
          1030.0,
          1030.0,
          1027.0,
          1031.0,
          1030.0,
          1029.0,
          1027.0,
          1027.0,
          1027.0,
          1026.0,
          1026.0,
          1030.0,
          1028.0,
          1029.0,
          1029.0,
          1029.0,
          1031.0,
          1031.0,
          1030.0,
          1029.0,
          1029.0,
          1027.0,
          1029.0,
          1033.0,
          1032.0,
          1030.0,
          1028.0,
          1031.0,
          1031.0,
          1029.0,
          1028.0,
          1026.0,
          1027.0,
          1028.0,
          1031.0,
          1029.0,
          1027.0,
          1026.0,
          1029.0,
          1033.0
        ],
        "WindowWidth": [
          2716.0,
          2712.0,
          2717.0,
          2714.0,
          2719.0,
          2720.0,
          2725.0,
          2725.0,
          2715.0,
          2715.0,
          2709.0,
          2722.0,
          2728.0,
          2718.0,
          2713.0,
          2712.0,
          2716.0,
          2706.0,
          2720.0,
          2715.0,
          2694.0,
          2696.0,
          2692.0,
          2706.0,
          2705.0,
          2696.0,
          2713.0,
          2711.0,
          2710.0,
          2701.0,
          2712.0,
          2714.0,
          2717.0,
          2704.0,
          2698.0,
          2708.0,
          2709.0,
          2712.0,
          2712.0,
          2711.0,
          2709.0,
          2717.0,
          2716.0,
          2719.0,
          2714.0,
          2717.0,
          2714.0,
          2716.0,
          2714.0,
          2712.0,
          2724.0,
          2716.0,
          2707.0,
          2704.0,
          2714.0,
          2713.0,
          2713.0,
          2708.0,
          2711.0,
          2710.0,
          2712.0,
          2715.0,
          2719.0,
          2716.0,
          2709.0,
          2708.0,
          2711.0,
          2712.0,
          2718.0,
          2716.0,
          2721.0,
          2726.0,
          2714.0,
          2706.0,
          2701.0,
          2703.0,
          2713.0,
          2715.0,
          2701.0,
          2702.0,
          2700.0,
          2714.0,
          2715.0,
          2713.0,
          2718.0,
          2719.0,
          2727.0,
          2725.0,
          2706.0,
          2718.0,
          2711.0,
          2701.0,
          2697.0,
          2699.0,
          2719.0,
          2718.0,
          2721.0,
          2731.0,
          2717.0,
          2709.0,
          2712.0,
          2701.0,
          2699.0,
          2699.0,
          2698.0,
          2712.0,
          2709.0,
          2706.0,
          2704.0,
          2711.0,
          2708.0,
          2710.0,
          2704.0,
          2709.0,
          2706.0,
          2706.0,
          2702.0,
          2711.0,
          2714.0,
          2714.0,
          2712.0,
          2714.0,
          2724.0,
          2715.0,
          2703.0,
          2704.0,
          2703.0,
          2721.0,
          2716.0,
          2710.0,
          2698.0,
          2695.0,
