{
  "aor": 0.0010309756097560976,
  "aqi": 0.003970334695121951,
  "bids_meta": {
    "AcquisitionMatrixPE": 96,
    "AcquisitionNumber": 1,
    "AcquisitionTime": "14:05:57.910000",
    "BandwidthPerPixelPhaseEncode": 52.083,
    "BaseResolution": 96,
    "ConversionSoftware": "dcm2niix",
    "ConversionSoftwareVersion": "v1.0.20180622 GCC6.3.0",
    "DerivedVendorReportedEchoSpacing": 0.000600004,
    "DeviceSerialNumber": "18926",
    "DwellTime": 2.6e-06,
    "EchoTime": 0.025,
    "EffectiveEchoSpacing": 0.000200001,
    "FlipAngle": 50,
    "ImageOrientationPatientDICOM": [
      0.999992,
      0.00067012,
      0.00404905,
      2.11009e-10,
      0.98658,
      -0.16328
    ],
    "ImageType": [
      "ORIGINAL",
      "PRIMARY",
      "M",
      "ND",
      "ECHO",
      "00",
      "MOSAIC"
    ],
    "InPlanePhaseEncodingDirectionDICOM": "ROW",
    "InstitutionName": "NIMH",
    "InstitutionalDepartmentName": "Department",
    "MRAcquisitionType": "2D",
    "MagneticFieldStrength": 6.98,
    "Manufacturer": "Siemens",
    "ManufacturersModelName": "Investigational_Device_7T",
    "Modality": "MR",
    "ParallelReductionFactorInPlane": 3,
    "PartialFourier": 1,
    "PatientPosition": "HFS",
    "PercentPhaseFOV": 100,
    "PhaseEncodingDirection": "i",
    "PhaseEncodingSteps": 94,
    "PhaseResolution": 1,
    "PixelBandwidth": 2003,
    "ProcedureStepDescription": "UserProtocols_FMRIF_Templates",
    "ProtocolName": "NIH_EPI_2.0iso_TR2_Run011",
    "PulseSequenceDetails": "%CustomerSeq%_inati_nih_epi",
    "ReceiveCoilName": "32Ch_Head_7T",
    "ReconMatrixPE": 96,
    "RepetitionTime": 2,
    "SAR": 0.0734712,
    "ScanningSequence": "EP",
    "SequenceName": "epfid2d1_96",
    "SequenceVariant": "SK",
    "SeriesDescription": "NIH_EPI_2.0iso_TR2_Run011",
    "SeriesNumber": 15,
    "ShimSetting": [
      -115,
      266,
      1196,
      1579,
      -89,
      563,
      139,
      -272
    ],
    "SliceThickness": 2,
    "SliceTiming": [
      1.005,
      0,
      1.0425,
      0.0375,
      1.0775,
      0.075,
      1.115,
      0.1125,
      1.1525,
      0.15,
      1.19,
      0.185,
      1.2275,
      0.2225,
      1.265,
      0.26,
      1.3025,
      0.2975,
      1.3375,
      0.335,
      1.375,
      0.3725,
      1.4125,
      0.41,
      1.45,
      0.4475,
      1.4875,
      0.4825,
      1.525,
      0.52,
      1.5625,
      0.5575,
      1.6,
      0.595,
      1.635,
      0.6325,
      1.6725,
      0.67,
      1.71,
      0.7075,
      1.7475,
      0.745,
      1.785,
      0.78,
      1.8225,
      0.8175,
      1.86,
      0.855,
      1.8975,
      0.8925,
      1.9325,
      0.93,
      1.97,
      0.9675
    ],
    "SoftwareVersions": "syngo_MR_B17",
    "SpacingBetweenSlices": 2,
    "StationName": "FMRIFD7T",
    "TaskName": "FullFovNoAttentionTask",
    "TotalReadoutTime": 0.0190001,
    "TxRefAmp": 270,
    "dataset": "ds001555",
    "dcmmeta_affine": [
      [
        -1.9999831914901733,
        4.2201880878778297e-10,
        0.008208253420889378,
        95.76705169677734
      ],
      [
        -0.0013402394251897931,
        1.973159670829773,
        -0.32655632495880127,
        -59.74467468261719
      ],
      [
        0.008098097518086433,
        0.32655906677246094,
        1.9731429815292358,
        -55.7390022277832
      ],
      [
        0.0,
        0.0,
        0.0,
        1.0
      ]
    ],
    "dcmmeta_reorient_transform": [
      [
        0.0,
        -1.0,
        0.0,
        95.0
      ],
      [
        1.0,
        0.0,
        0.0,
        0.0
      ],
      [
        0.0,
        0.0,
        1.0,
        0.0
      ],
      [
        0.0,
        0.0,
        0.0,
        1.0
      ]
    ],
    "dcmmeta_shape": [
      96,
      96,
      54,
      164
    ],
    "dcmmeta_slice_dim": 2,
    "dcmmeta_version": 0.6,
    "global": {
      "const": {
        "AcquisitionMatrix": [
          0,
          96,
          96,
          0
        ],
        "AngioFlag": "N",
        "BitsAllocated": 16,
        "BitsStored": 12,
        "Columns": 768,
        "EchoNumbers": 1,
        "EchoTime": 25.0,
        "EchoTrainLength": 1,
        "FlipAngle": 50.0,
        "HighBit": 11,
        "ImageOrientationPatient": [
          0.99999157803662,
          0.00067011969073,
          0.00404904870684,
          2.110094e-10,
          0.98657984636313,
          -0.1632795356133
        ],
        "ImagePositionPatient": [
          -767.761392775,
          -791.1374745092,
          82.286995969312
        ],
        "ImageType": [
          "ORIGINAL",
          "PRIMARY",
          "M",
          "ND",
          "ECHO_00",
          "MOSAIC"
        ],
        "ImagedNucleus": "1H",
        "ImagingFrequency": 297.205151,
        "InPlanePhaseEncodingDirection": "ROW",
        "LargestImagePixelValue": 4095,
        "MRAcquisitionType": "2D",
        "MagneticFieldStrength": 6.98,
        "Manufacturer": "SIEMENS",
        "ManufacturerModelName": "Investigational_Device_7T",
        "Modality": "MR",
        "NumberOfAverages": 1.0,
        "NumberOfPhaseEncodingSteps": 94,
        "PercentPhaseFieldOfView": 100.0,
        "PercentSampling": 100.0,
        "PerformedProcedureStepStartTime": "125235.937000",
        "PhotometricInterpretation": "MONOCHROME2",
        "PixelBandwidth": 2003.0,
        "PixelRepresentation": 0,
        "PixelSpacing": [
          2.0,
          2.0
        ],
        "PositionReferenceIndicator": "",
        "ProtocolName": "NIH_EPI_2.0iso_TR2_Run011",
        "RepetitionTime": 2000.0,
        "Rows": 768,
        "SAR": 0.07347115807071,
        "SamplesPerPixel": 1,
        "ScanningSequence": "EP",
        "SequenceName": "epfid2d1_96",
        "SequenceVariant": "SK",
        "SeriesDescription": "NIH_EPI_2.0iso_TR2_Run011",
        "SeriesNumber": 15,
        "SliceLocation": -44.842473382871,
        "SliceThickness": 2.0,
        "SmallestImagePixelValue": 0,
        "SoftwareVersions": "syngo MR B17",
        "SpacingBetweenSlices": 1.9999999415377,
        "TransmitCoilName": "32Ch_Head_7T",
        "VariableFlipAngleFlag": "N",
        "WindowCenterWidthExplanation": "Algo1",
        "dBdt": 0.0
      },
      "slices": {}
    },
    "modality": "bold",
    "run_id": 12,
    "session_id": "06",
    "subject_id": "002",
    "task_id": "FullFovNoAttentionTask",
    "time": {
      "samples": {
        "AcquisitionNumber": [
          1,
          2,
          3,
          4,
          5,
          6,
          7,
          8,
          9,
          10,
          11,
          12,
          13,
          14,
          15,
          16,
          17,
          18,
          19,
          20,
          21,
          22,
          23,
          24,
          25,
          26,
          27,
          28,
          29,
          30,
          31,
          32,
          33,
          34,
          35,
          36,
          37,
          38,
          39,
          40,
          41,
          42,
          43,
          44,
          45,
          46,
          47,
          48,
          49,
          50,
          51,
          52,
          53,
          54,
          55,
          56,
          57,
          58,
          59,
          60,
          61,
          62,
          63,
          64,
          65,
          66,
          67,
          68,
          69,
          70,
          71,
          72,
          73,
          74,
          75,
          76,
          77,
          78,
          79,
          80,
          81,
          82,
          83,
          84,
          85,
          86,
          87,
          88,
          89,
          90,
          91,
          92,
          93,
          94,
          95,
          96,
          97,
          98,
          99,
          100,
          101,
          102,
          103,
          104,
          105,
          106,
          107,
          108,
          109,
          110,
          111,
          112,
          113,
          114,
          115,
          116,
          117,
          118,
          119,
          120,
          121,
          122,
          123,
          124,
          125,
          126,
          127,
          128,
          129,
          130,
          131,
          132,
          133,
          134,
          135,
          136,
          137,
          138,
          139,
          140,
          141,
          142,
          143,
          144,
          145,
          146,
          147,
          148,
          149,
          150,
          151,
          152,
          153,
          154,
          155,
          156,
          157,
          158,
          159,
          160,
          161,
          162,
          163,
          164
        ],
        "AcquisitionTime": [
          "140557.910000",
          "140601.925000",
          "140603.932500",
          "140605.940000",
          "140607.950000",
          "140609.957500",
          "140611.965000",
          "140613.972500",
          "140615.982500",
          "140617.990000",
          "140619.997500",
          "140622.005000",
          "140624.012500",
          "140626.022500",
          "140628.030000",
          "140630.037500",
          "140632.045000",
          "140634.052500",
          "140636.062500",
          "140638.070000",
          "140640.077500",
          "140642.085000",
          "140644.095000",
          "140646.102500",
          "140648.110000",
          "140650.117500",
          "140652.125000",
          "140654.135000",
          "140656.142500",
          "140658.150000",
          "140700.157500",
          "140702.165000",
          "140704.175000",
          "140706.182500",
          "140708.190000",
          "140710.197500",
          "140712.207500",
          "140714.215000",
          "140716.222500",
          "140718.230000",
          "140720.237500",
          "140722.247500",
          "140724.255000",
          "140726.262500",
          "140728.270000",
          "140730.277500",
          "140732.287500",
          "140734.295000",
          "140736.302500",
          "140738.310000",
          "140740.317500",
          "140742.327500",
          "140744.335000",
          "140746.342500",
          "140748.350000",
          "140750.360000",
          "140752.367500",
          "140754.375000",
          "140756.382500",
          "140758.390000",
          "140800.400000",
          "140802.407500",
          "140804.415000",
          "140806.422500",
          "140808.430000",
          "140810.440000",
          "140812.447500",
          "140814.455000",
          "140816.462500",
          "140818.472500",
          "140820.480000",
          "140822.487500",
          "140824.495000",
          "140826.502500",
          "140828.512500",
          "140830.520000",
          "140832.527500",
          "140834.535000",
          "140836.542500",
          "140838.552500",
          "140840.560000",
          "140842.567500",
          "140844.575000",
          "140846.585000",
          "140848.592500",
          "140850.600000",
          "140852.607500",
          "140854.615000",
          "140856.625000",
          "140858.632500",
          "140900.640000",
          "140902.647500",
          "140904.655000",
          "140906.665000",
          "140908.672500",
          "140910.680000",
          "140912.687500",
          "140914.695000",
          "140916.705000",
          "140918.712500",
          "140920.720000",
          "140922.727500",
          "140924.737500",
          "140926.745000",
          "140928.752500",
          "140930.760000",
          "140932.767500",
          "140934.777500",
          "140936.785000",
          "140938.792500",
          "140940.800000",
          "140942.807500",
          "140944.817500",
          "140946.825000",
          "140948.832500",
          "140950.840000",
          "140952.850000",
          "140954.857500",
          "140956.865000",
          "140958.872500",
          "141000.880000",
          "141002.890000",
          "141004.897500",
          "141006.905000",
          "141008.912500",
          "141010.920000",
          "141012.930000",
          "141014.937500",
          "141016.945000",
          "141018.952500",
          "141020.962500",
          "141022.970000",
          "141024.977500",
          "141026.985000",
          "141028.992500",
          "141031.002500",
          "141033.010000",
          "141035.017500",
          "141037.025000",
          "141039.032500",
          "141041.042500",
          "141043.050000",
          "141045.057500",
          "141047.065000",
          "141049.072500",
          "141051.082500",
          "141053.090000",
          "141055.097500",
          "141057.105000",
          "141059.115000",
          "141101.122500",
          "141103.130000",
          "141105.137500",
          "141107.145000",
          "141109.155000",
          "141111.162500",
          "141113.170000",
          "141115.177500",
          "141117.185000",
          "141119.195000",
          "141121.202500",
          "141123.210000",
          "141125.217500",
          "141127.227500"
        ],
        "ContentTime": [
          "140642.453000",
          "140642.468000",
          "140642.468000",
          "140642.468000",
          "140642.468000",
          "140642.468000",
          "140642.484000",
          "140642.484000",
          "140642.484000",
          "140642.484000",
          "140642.500000",
          "140642.500000",
          "140642.500000",
          "140642.500000",
          "140642.500000",
          "140642.500000",
          "140642.515000",
          "140642.515000",
          "140642.515000",
          "140642.515000",
          "140642.515000",
          "140702.453000",
          "140702.453000",
          "140702.453000",
          "140702.468000",
          "140702.468000",
          "140702.468000",
          "140702.468000",
          "140702.468000",
          "140702.468000",
          "140702.484000",
          "140742.453000",
          "140742.453000",
          "140742.453000",
          "140742.453000",
          "140742.453000",
          "140742.468000",
          "140742.468000",
          "140742.468000",
          "140742.468000",
          "140742.484000",
          "140742.484000",
          "140742.484000",
          "140742.484000",
          "140742.484000",
          "140742.500000",
          "140742.500000",
          "140742.500000",
          "140742.500000",
          "140742.500000",
          "140742.500000",
          "140822.453000",
          "140822.453000",
          "140822.453000",
          "140822.468000",
          "140822.468000",
          "140822.468000",
          "140822.468000",
          "140822.468000",
          "140822.484000",
          "140822.484000",
          "140822.484000",
          "140822.484000",
          "140822.484000",
          "140822.484000",
          "140822.484000",
          "140822.500000",
          "140822.500000",
          "140822.500000",
          "140822.500000",
          "140822.500000",
          "140902.453000",
          "140902.453000",
          "140902.453000",
          "140902.468000",
          "140902.468000",
          "140902.468000",
          "140902.468000",
          "140902.484000",
          "140902.484000",
          "140902.484000",
          "140902.500000",
          "140902.500000",
          "140902.500000",
          "140902.500000",
          "140902.500000",
          "140902.500000",
          "140902.515000",
          "140902.515000",
          "140902.515000",
          "140902.515000",
          "140942.453000",
          "140942.453000",
          "140942.453000",
          "140942.468000",
          "140942.468000",
          "140942.468000",
          "140942.468000",
          "140942.468000",
          "140942.468000",
          "140942.468000",
          "140942.484000",
          "140942.484000",
          "140942.484000",
          "140942.484000",
          "140942.484000",
          "140942.484000",
          "140942.484000",
          "140942.500000",
          "140942.500000",
          "140942.500000",
          "141022.453000",
          "141022.453000",
          "141022.453000",
          "141022.468000",
          "141022.468000",
          "141022.468000",
          "141022.468000",
          "141022.468000",
          "141022.468000",
          "141022.468000",
          "141022.484000",
          "141022.484000",
          "141022.484000",
          "141022.484000",
          "141022.484000",
          "141022.484000",
          "141022.484000",
          "141022.500000",
          "141022.500000",
          "141022.500000",
          "141102.453000",
          "141102.453000",
          "141102.453000",
          "141102.468000",
          "141102.468000",
          "141102.468000",
          "141102.468000",
          "141102.468000",
          "141102.468000",
          "141102.468000",
          "141102.484000",
          "141102.484000",
          "141102.484000",
          "141102.500000",
          "141102.500000",
          "141102.500000",
          "141102.500000",
          "141102.500000",
          "141102.500000",
          "141102.515000",
          "141127.062000",
          "141127.062000",
          "141127.078000",
          "141127.078000",
          "141127.078000",
          "141127.078000",
          "141127.078000",
          "141127.078000",
          "141127.078000",
          "141127.093000",
          "141127.093000",
          "141127.125000",
          "141127.125000"
        ],
        "InstanceCreationTime": [
          "140642.453000",
          "140642.468000",
          "140642.468000",
          "140642.468000",
          "140642.468000",
          "140642.468000",
          "140642.484000",
          "140642.484000",
          "140642.484000",
          "140642.484000",
          "140642.500000",
          "140642.500000",
          "140642.500000",
          "140642.500000",
          "140642.500000",
          "140642.500000",
          "140642.515000",
          "140642.515000",
          "140642.515000",
          "140642.515000",
          "140642.515000",
          "140702.453000",
          "140702.453000",
          "140702.453000",
          "140702.468000",
          "140702.468000",
          "140702.468000",
          "140702.468000",
          "140702.468000",
          "140702.468000",
          "140702.484000",
          "140742.453000",
          "140742.453000",
          "140742.453000",
          "140742.453000",
          "140742.453000",
          "140742.468000",
          "140742.468000",
          "140742.468000",
          "140742.468000",
          "140742.484000",
          "140742.484000",
          "140742.484000",
          "140742.484000",
          "140742.484000",
          "140742.500000",
          "140742.500000",
          "140742.500000",
          "140742.500000",
          "140742.500000",
          "140742.500000",
          "140822.453000",
          "140822.453000",
          "140822.453000",
          "140822.468000",
          "140822.468000",
          "140822.468000",
          "140822.468000",
          "140822.468000",
          "140822.484000",
          "140822.484000",
          "140822.484000",
          "140822.484000",
          "140822.484000",
          "140822.484000",
          "140822.484000",
          "140822.500000",
          "140822.500000",
          "140822.500000",
          "140822.500000",
          "140822.500000",
          "140902.453000",
          "140902.453000",
          "140902.453000",
          "140902.468000",
          "140902.468000",
          "140902.468000",
          "140902.468000",
          "140902.484000",
          "140902.484000",
          "140902.484000",
          "140902.500000",
          "140902.500000",
          "140902.500000",
          "140902.500000",
          "140902.500000",
          "140902.500000",
          "140902.515000",
          "140902.515000",
          "140902.515000",
          "140902.515000",
          "140942.453000",
          "140942.453000",
          "140942.453000",
          "140942.468000",
          "140942.468000",
          "140942.468000",
          "140942.468000",
          "140942.468000",
          "140942.468000",
          "140942.468000",
          "140942.484000",
          "140942.484000",
          "140942.484000",
          "140942.484000",
          "140942.484000",
          "140942.484000",
          "140942.484000",
          "140942.500000",
          "140942.500000",
          "140942.500000",
          "141022.453000",
          "141022.453000",
          "141022.453000",
          "141022.468000",
          "141022.468000",
          "141022.468000",
          "141022.468000",
          "141022.468000",
          "141022.468000",
          "141022.468000",
          "141022.484000",
          "141022.484000",
          "141022.484000",
          "141022.484000",
          "141022.484000",
          "141022.484000",
          "141022.484000",
          "141022.500000",
          "141022.500000",
          "141022.500000",
          "141102.453000",
          "141102.453000",
          "141102.453000",
          "141102.468000",
          "141102.468000",
          "141102.468000",
          "141102.468000",
          "141102.468000",
          "141102.468000",
          "141102.468000",
          "141102.484000",
          "141102.484000",
          "141102.484000",
          "141102.500000",
          "141102.500000",
          "141102.500000",
          "141102.500000",
          "141102.500000",
          "141102.500000",
          "141102.515000",
          "141127.062000",
          "141127.062000",
          "141127.078000",
          "141127.078000",
          "141127.078000",
          "141127.078000",
          "141127.078000",
          "141127.078000",
          "141127.078000",
          "141127.093000",
          "141127.093000",
          "141127.125000",
          "141127.125000"
        ],
        "InstanceNumber": [
          1,
          2,
          3,
          4,
          5,
          6,
          7,
          8,
          9,
          10,
          11,
          12,
          13,
          14,
          15,
          16,
          17,
          18,
          19,
          20,
          21,
          22,
          23,
          24,
          25,
          26,
          27,
          28,
          29,
          30,
          31,
          32,
          33,
          34,
          35,
          36,
          37,
          38,
          39,
          40,
          41,
          42,
          43,
          44,
          45,
          46,
          47,
          48,
          49,
          50,
          51,
          52,
          53,
          54,
          55,
          56,
          57,
          58,
          59,
          60,
          61,
          62,
          63,
          64,
          65,
          66,
          67,
          68,
          69,
          70,
          71,
          72,
          73,
          74,
          75,
          76,
          77,
          78,
          79,
          80,
          81,
          82,
          83,
          84,
          85,
          86,
          87,
          88,
          89,
          90,
          91,
          92,
          93,
          94,
          95,
          96,
          97,
          98,
          99,
          100,
          101,
          102,
          103,
          104,
          105,
          106,
          107,
          108,
          109,
          110,
          111,
          112,
          113,
          114,
          115,
          116,
          117,
          118,
          119,
          120,
          121,
          122,
          123,
          124,
          125,
          126,
          127,
          128,
          129,
          130,
          131,
          132,
          133,
          134,
          135,
          136,
          137,
          138,
          139,
          140,
          141,
          142,
          143,
          144,
          145,
          146,
          147,
          148,
          149,
          150,
          151,
          152,
          153,
          154,
          155,
          156,
          157,
          158,
          159,
          160,
          161,
          162,
          163,
          164
        ],
        "WindowCenter": [
          1033.0,
          1035.0,
          1033.0,
          1033.0,
          1032.0,
          1031.0,
          1032.0,
          1032.0,
          1031.0,
          1031.0,
          1032.0,
          1032.0,
          1032.0,
          1031.0,
          1031.0,
          1032.0,
          1032.0,
          1033.0,
          1032.0,
          1033.0,
          1033.0,
          1032.0,
          1033.0,
          1032.0,
          1033.0,
          1031.0,
          1031.0,
          1032.0,
          1030.0,
          1031.0,
          1030.0,
          1030.0,
          1030.0,
          1030.0,
          1031.0,
          1028.0,
          1030.0,
          1032.0,
          1032.0,
          1031.0,
          1031.0,
          1030.0,
          1034.0,
          1032.0,
          1032.0,
          1031.0,
          1032.0,
          1031.0,
          1031.0,
          1031.0,
          1031.0,
          1031.0,
          1031.0,
          1031.0,
          1031.0,
          1031.0,
          1032.0,
          1032.0,
          1031.0,
          1031.0,
          1032.0,
          1032.0,
          1031.0,
          1031.0,
          1031.0,
          1032.0,
          1032.0,
          1033.0,
          1033.0,
          1033.0,
          1030.0,
          1030.0,
          1032.0,
          1033.0,
          1032.0,
          1032.0,
          1032.0,
          1033.0,
          1034.0,
          1033.0,
          1033.0,
          1032.0,
          1033.0,
          1032.0,
          1032.0,
          1031.0,
          1033.0,
          1034.0,
          1031.0,
          1031.0,
          1033.0,
          1034.0,
          1033.0,
          1031.0,
          1033.0,
          1033.0,
          1033.0,
          1031.0,
          1032.0,
          1034.0,
          1036.0,
          1034.0,
          1034.0,
          1034.0,
          1034.0,
          1034.0,
          1034.0,
          1035.0,
          1035.0,
          1035.0,
          1034.0,
          1033.0,
          1033.0,
          1035.0,
          1033.0,
          1034.0,
          1033.0,
          1034.0,
          1034.0,
          1032.0,
          1034.0,
          1034.0,
          1033.0,
          1034.0,
          1034.0,
          1034.0,
          1035.0,
          1035.0,
          1033.0,
          1034.0,
          1034.0,
          1033.0,
          1032.0,
          1031.0,
          1034.0,
          1033.0,
          1033.0,
          1032.0,
          1033.0,
          1032.0,
          1032.0,
          1034.0,
          1033.0,
          1032.0,
          1033.0,
          1033.0,
          1034.0,
          1033.0,
          1033.0,
          1033.0,
          1033.0,
          1033.0,
          1034.0,
          1034.0,
          1033.0,
          1034.0,
          1033.0,
          1034.0,
          1033.0,
          1035.0,
          1035.0,
          1037.0,
          1037.0,
          1033.0
        ],
        "WindowWidth": [
          2728.0,
          2730.0,
          2729.0,
          2725.0,
          2727.0,
          2721.0,
          2724.0,
          2723.0,
          2723.0,
          2717.0,
          2723.0,
          2722.0,
          2720.0,
          2718.0,
          2721.0,
          2722.0,
          2726.0,
          2724.0,
          2727.0,
          2727.0,
          2726.0,
          2720.0,
          2726.0,
          2723.0,
          2721.0,
          2719.0,
          2718.0,
          2722.0,
          2712.0,
          2718.0,
          2712.0,
          2717.0,
          2713.0,
          2718.0,
          2715.0,
          2705.0,
          2709.0,
          2725.0,
          2720.0,
          2720.0,
          2720.0,
          2721.0,
          2731.0,
          2722.0,
          2722.0,
          2714.0,
          2722.0,
          2716.0,
          2715.0,
          2715.0,
          2718.0,
          2714.0,
          2717.0,
          2714.0,
          2710.0,
          2717.0,
          2719.0,
          2719.0,
          2716.0,
          2717.0,
          2719.0,
          2719.0,
          2710.0,
          2721.0,
          2717.0,
          2725.0,
          2715.0,
          2726.0,
          2724.0,
          2721.0,
          2710.0,
          2712.0,
          2721.0,
          2723.0,
          2709.0,
          2717.0,
          2714.0,
          2721.0,
          2719.0,
          2719.0,
          2718.0,
          2713.0,
          2721.0,
          2716.0,
          2716.0,
          2708.0,
          2724.0,
          2720.0,
          2712.0,
          2711.0,
          2726.0,
          2720.0,
          2712.0,
          2710.0,
          2722.0,
          2724.0,
          2719.0,
          2708.0,
          2720.0,
          2728.0,
          2726.0,
          2722.0,
          2725.0,
          2722.0,
          2724.0,
          2720.0,
          2723.0,
          2722.0,
          2724.0,
          2722.0,
          2717.0,
          2711.0,
          2714.0,
          2718.0,
          2713.0,
          2722.0,
          2712.0,
          2719.0,
          2719.0,
          2710.0,
          2721.0,
          2714.0,
          2718.0,
          2715.0,
          2715.0,
          2720.0,
          2716.0,
          2719.0,
          2710.0,
          2719.0,
          2712.0,
