{
  "aor": 0.0019143292682926825,
  "aqi": 0.00847915981707317,
  "bids_meta": {
    "AcquisitionMatrixPE": 96,
    "AcquisitionNumber": 1,
    "AcquisitionTime": "17:30:19.517500",
    "BandwidthPerPixelPhaseEncode": 52.083,
    "BaseResolution": 96,
    "BodyPartExamined": "HEAD",
    "ConversionSoftware": "dcm2niix",
    "ConversionSoftwareVersion": "v1.0.20180622 GCC6.3.0",
    "DerivedVendorReportedEchoSpacing": 0.000600004,
    "DeviceSerialNumber": "18926",
    "DwellTime": 2.6e-06,
    "EchoTime": 0.025,
    "EffectiveEchoSpacing": 0.000200001,
    "FlipAngle": 50,
    "ImageOrientationPatientDICOM": [
      1,
      -2.05103e-10,
      0,
      2.05103e-10,
      1,
      0
    ],
    "ImageType": [
      "ORIGINAL",
      "PRIMARY",
      "M",
      "ND",
      "ECHO",
      "00",
      "MOSAIC"
    ],
    "InPlanePhaseEncodingDirectionDICOM": "ROW",
    "InstitutionName": "NIMH",
    "InstitutionalDepartmentName": "Department",
    "MRAcquisitionType": "2D",
    "MagneticFieldStrength": 6.98,
    "Manufacturer": "Siemens",
    "ManufacturersModelName": "Investigational_Device_7T",
    "Modality": "MR",
    "ParallelReductionFactorInPlane": 3,
    "PartialFourier": 1,
    "PatientPosition": "HFS",
    "PercentPhaseFOV": 100,
    "PhaseEncodingDirection": "i",
    "PhaseEncodingSteps": 94,
    "PhaseResolution": 1,
    "PixelBandwidth": 2003,
    "ProcedureStepDescription": "MRI_Procedure_Limited",
    "ProtocolName": "NIH_EPI_2.0iso_TR2_Run09",
    "PulseSequenceDetails": "%CustomerSeq%_inati_nih_epi",
    "ReceiveCoilName": "32Ch_Head_7T",
    "ReconMatrixPE": 96,
    "RepetitionTime": 2,
    "SAR": 0.0812167,
    "ScanningSequence": "EP",
    "SequenceName": "epfid2d1_96",
    "SequenceVariant": "SK",
    "SeriesDescription": "NIH_EPI_2.0iso_TR2_Run09",
    "SeriesNumber": 15,
    "ShimSetting": [
      -120,
      133,
      1277,
      2388,
      -223,
      615,
      308,
      -340
    ],
    "SliceThickness": 2,
    "SliceTiming": [
      1.0025,
      0,
      1.04,
      0.0375,
      1.0775,
      0.075,
      1.115,
      0.11,
      1.1525,
      0.1475,
      1.19,
      0.185,
      1.2275,
      0.2225,
      1.2625,
      0.26,
      1.3,
      0.2975,
      1.3375,
      0.335,
      1.375,
      0.37,
      1.4125,
      0.4075,
      1.45,
      0.445,
      1.4875,
      0.4825,
      1.525,
      0.52,
      1.56,
      0.5575,
      1.5975,
      0.595,
      1.635,
      0.6325,
      1.6725,
      0.6675,
      1.71,
      0.705,
      1.7475,
      0.7425,
      1.785,
      0.78,
      1.82,
      0.8175,
      1.8575,
      0.855,
      1.895,
      0.8925,
      1.9325,
      0.93,
      1.97,
      0.965
    ],
    "SoftwareVersions": "syngo_MR_B17",
    "SpacingBetweenSlices": 2,
    "StationName": "FMRIFD7T",
    "TaskName": "FullFovAttentionTask",
    "TotalReadoutTime": 0.0190001,
    "TxRefAmp": 286,
    "dataset": "ds001555",
    "dcmmeta_affine": [
      [
        -2.0,
        4.1020681296188855e-10,
        0.0,
        95.98538208007812
      ],
      [
        4.1020681296188855e-10,
        2.0,
        0.0,
        -72.42303466796875
      ],
      [
        0.0,
        0.0,
        2.0,
        -30.593246459960938
      ],
      [
        0.0,
        0.0,
        0.0,
        1.0
      ]
    ],
    "dcmmeta_reorient_transform": [
      [
        0.0,
        -1.0,
        0.0,
        95.0
      ],
      [
        1.0,
        0.0,
        0.0,
        0.0
      ],
      [
        0.0,
        0.0,
        1.0,
        0.0
      ],
      [
        0.0,
        0.0,
        0.0,
        1.0
      ]
    ],
    "dcmmeta_shape": [
      96,
      96,
      54,
      164
    ],
    "dcmmeta_slice_dim": 2,
    "dcmmeta_version": 0.6,
    "global": {
      "const": {
        "AcquisitionMatrix": [
          0,
          96,
          96,
          0
        ],
        "Allergies": "No Known Allergies",
        "AngioFlag": "N",
        "BitsAllocated": 16,
        "BitsStored": 12,
        "BodyPartExamined": "HEAD",
        "Columns": 768,
        "EchoNumbers": 1,
        "EchoTime": 25.0,
        "EchoTrainLength": 1,
        "FlipAngle": 50.0,
        "HighBit": 11,
        "ImageOrientationPatient": [
          1.0,
          -2.051034e-10,
          0.0,
          2.051034e-10,
          1.0,
          0.0
        ],
        "ImagePositionPatient": [
          -767.98537955166,
          -789.57696326716,
          -30.593246459961
        ],
        "ImageType": [
          "ORIGINAL",
          "PRIMARY",
          "M",
          "ND",
          "ECHO_00",
          "MOSAIC"
        ],
        "ImagedNucleus": "1H",
        "ImagingFrequency": 297.204996,
        "InPlanePhaseEncodingDirection": "ROW",
        "LargestImagePixelValue": 4095,
        "MRAcquisitionType": "2D",
        "MagneticFieldStrength": 6.98,
        "Manufacturer": "SIEMENS",
        "ManufacturerModelName": "Investigational_Device_7T",
        "Modality": "MR",
        "NumberOfAverages": 1.0,
        "NumberOfPhaseEncodingSteps": 94,
        "PercentPhaseFieldOfView": 100.0,
        "PercentSampling": 100.0,
        "PerformedProcedureStepStartTime": "161157.887000",
        "PhotometricInterpretation": "MONOCHROME2",
        "PixelBandwidth": 2003.0,
        "PixelRepresentation": 0,
        "PixelSpacing": [
          2.0,
          2.0
        ],
        "PositionReferenceIndicator": "",
        "ProcedureCodeSequence": [
          {
            "CodeMeaning": "MRI Procedure Limited",
            "CodeValue": "MI01491",
            "CodingSchemeDesignator": "USA Standard",
            "ContextIdentifier": "4000133395"
          }
        ],
        "ProtocolName": "NIH_EPI_2.0iso_TR2_Run09",
        "ReferencedStudySequence": [
          {
            "ReferencedSOPClassUID": "1.2.840.10008.3.1.2.3.1",
            "ReferencedSOPInstanceUID": "1.2.840.113564.9.1.2787814059.53.2.5000099245"
          }
        ],
        "RepetitionTime": 2000.0,
        "RequestedProcedureCodeSequence": [
          {
            "CodeMeaning": "MRI Procedure Limited",
            "CodeValue": "MI01491",
            "CodingSchemeDesignator": "USA Standard",
            "ContextIdentifier": "4000133395"
          }
        ],
        "RequestingService": "NIMH Molecular Imaging Branch",
        "Rows": 768,
        "SAR": 0.08121674495792,
        "SamplesPerPixel": 1,
        "ScanningSequence": "EP",
        "SequenceName": "epfid2d1_96",
        "SequenceVariant": "SK",
        "SeriesDescription": "NIH_EPI_2.0iso_TR2_Run09",
        "SeriesNumber": 15,
        "SliceLocation": -30.593246459961,
        "SliceThickness": 2.0,
        "SmallestImagePixelValue": 0,
        "SoftwareVersions": "syngo MR B17",
        "SpacingBetweenSlices": 2.0,
        "TransmitCoilName": "32Ch_Head_7T",
        "VariableFlipAngleFlag": "N",
        "WindowCenterWidthExplanation": "Algo1",
        "dBdt": 0.0
      },
      "slices": {}
    },
    "modality": "bold",
    "run_id": 12,
    "session_id": "09",
    "subject_id": "003",
    "task_id": "FullFovAttentionTask",
    "time": {
      "samples": {
        "AcquisitionNumber": [
          1,
          2,
          3,
          4,
          5,
          6,
          7,
          8,
          9,
          10,
          11,
          12,
          13,
          14,
          15,
          16,
          17,
          18,
          19,
          20,
          21,
          22,
          23,
          24,
          25,
          26,
          27,
          28,
          29,
          30,
          31,
          32,
          33,
          34,
          35,
          36,
          37,
          38,
          39,
          40,
          41,
          42,
          43,
          44,
          45,
          46,
          47,
          48,
          49,
          50,
          51,
          52,
          53,
          54,
          55,
          56,
          57,
          58,
          59,
          60,
          61,
          62,
          63,
          64,
          65,
          66,
          67,
          68,
          69,
          70,
          71,
          72,
          73,
          74,
          75,
          76,
          77,
          78,
          79,
          80,
          81,
          82,
          83,
          84,
          85,
          86,
          87,
          88,
          89,
          90,
          91,
          92,
          93,
          94,
          95,
          96,
          97,
          98,
          99,
          100,
          101,
          102,
          103,
          104,
          105,
          106,
          107,
          108,
          109,
          110,
          111,
          112,
          113,
          114,
          115,
          116,
          117,
          118,
          119,
          120,
          121,
          122,
          123,
          124,
          125,
          126,
          127,
          128,
          129,
          130,
          131,
          132,
          133,
          134,
          135,
          136,
          137,
          138,
          139,
          140,
          141,
          142,
          143,
          144,
          145,
          146,
          147,
          148,
          149,
          150,
          151,
          152,
          153,
          154,
          155,
          156,
          157,
          158,
          159,
          160,
          161,
          162,
          163,
          164
        ],
        "AcquisitionTime": [
          "173019.517500",
          "173023.535000",
          "173025.542500",
          "173027.550000",
          "173029.557500",
          "173031.567500",
          "173033.575000",
          "173035.582500",
          "173037.590000",
          "173039.597500",
          "173041.607500",
          "173043.615000",
          "173045.622500",
          "173047.630000",
          "173049.637500",
          "173051.647500",
          "173053.655000",
          "173055.662500",
          "173057.670000",
          "173059.680000",
          "173101.687500",
          "173103.695000",
          "173105.702500",
          "173107.710000",
          "173109.720000",
          "173111.727500",
          "173113.735000",
          "173115.742500",
          "173117.750000",
          "173119.760000",
          "173121.767500",
          "173123.775000",
          "173125.782500",
          "173127.792500",
          "173129.800000",
          "173131.807500",
          "173133.815000",
          "173135.822500",
          "173137.832500",
          "173139.840000",
          "173141.847500",
          "173143.855000",
          "173145.862500",
          "173147.872500",
          "173149.880000",
          "173151.887500",
          "173153.895000",
          "173155.905000",
          "173157.912500",
          "173159.920000",
          "173201.927500",
          "173203.935000",
          "173205.945000",
          "173207.952500",
          "173209.960000",
          "173211.967500",
          "173213.975000",
          "173215.985000",
          "173217.992500",
          "173220.000000",
          "173222.007500",
          "173224.017500",
          "173226.025000",
          "173228.032500",
          "173230.040000",
          "173232.047500",
          "173234.057500",
          "173236.065000",
          "173238.072500",
          "173240.080000",
          "173242.087500",
          "173244.097500",
          "173246.105000",
          "173248.112500",
          "173250.120000",
          "173252.127500",
          "173254.137500",
          "173256.145000",
          "173258.152500",
          "173300.160000",
          "173302.170000",
          "173304.177500",
          "173306.185000",
          "173308.192500",
          "173310.200000",
          "173312.210000",
          "173314.217500",
          "173316.225000",
          "173318.232500",
          "173320.240000",
          "173322.250000",
          "173324.257500",
          "173326.265000",
          "173328.272500",
          "173330.282500",
          "173332.290000",
          "173334.297500",
          "173336.305000",
          "173338.312500",
          "173340.322500",
          "173342.330000",
          "173344.337500",
          "173346.345000",
          "173348.352500",
          "173350.362500",
          "173352.370000",
          "173354.377500",
          "173356.385000",
          "173358.395000",
          "173400.402500",
          "173402.410000",
          "173404.417500",
          "173406.425000",
          "173408.435000",
          "173410.442500",
          "173412.450000",
          "173414.457500",
          "173416.465000",
          "173418.475000",
          "173420.482500",
          "173422.490000",
          "173424.497500",
          "173426.505000",
          "173428.515000",
          "173430.522500",
          "173432.530000",
          "173434.537500",
          "173436.547500",
          "173438.555000",
          "173440.562500",
          "173442.570000",
          "173444.577500",
          "173446.587500",
          "173448.595000",
          "173450.602500",
          "173452.610000",
          "173454.617500",
          "173456.627500",
          "173458.635000",
          "173500.642500",
          "173502.650000",
          "173504.660000",
          "173506.667500",
          "173508.675000",
          "173510.682500",
          "173512.690000",
          "173514.700000",
          "173516.707500",
          "173518.715000",
          "173520.722500",
          "173522.730000",
          "173524.740000",
          "173526.747500",
          "173528.755000",
          "173530.762500",
          "173532.772500",
          "173534.780000",
          "173536.787500",
          "173538.795000",
          "173540.802500",
          "173542.812500",
          "173544.820000",
          "173546.827500",
          "173548.835000"
        ],
        "ContentTime": [
          "173101.324000",
          "173101.324000",
          "173101.324000",
          "173101.340000",
          "173101.340000",
          "173101.340000",
          "173101.340000",
          "173101.340000",
          "173101.355000",
          "173101.355000",
          "173101.355000",
          "173101.355000",
          "173101.355000",
          "173101.355000",
          "173101.355000",
          "173101.371000",
          "173101.371000",
          "173101.371000",
          "173101.371000",
          "173101.371000",
          "173141.308000",
          "173141.308000",
          "173141.308000",
          "173141.308000",
          "173141.308000",
          "173141.324000",
          "173141.324000",
          "173141.324000",
          "173141.324000",
          "173141.324000",
          "173141.324000",
          "173141.324000",
          "173141.340000",
          "173141.340000",
          "173141.340000",
          "173141.340000",
          "173141.355000",
          "173141.355000",
          "173141.355000",
          "173141.355000",
          "173221.308000",
          "173221.308000",
          "173221.308000",
          "173221.308000",
          "173221.308000",
          "173221.324000",
          "173221.324000",
          "173221.324000",
          "173221.324000",
          "173221.340000",
          "173221.340000",
          "173221.340000",
          "173221.340000",
          "173221.340000",
          "173221.340000",
          "173221.355000",
          "173221.355000",
          "173221.355000",
          "173221.355000",
          "173221.355000",
          "173301.308000",
          "173301.308000",
          "173301.308000",
          "173301.308000",
          "173301.308000",
          "173301.324000",
          "173301.324000",
          "173301.324000",
          "173301.324000",
          "173301.324000",
          "173301.340000",
          "173301.340000",
          "173301.340000",
          "173301.340000",
          "173301.340000",
          "173301.340000",
          "173301.355000",
          "173301.355000",
          "173301.355000",
          "173301.355000",
          "173341.308000",
          "173341.308000",
          "173341.308000",
          "173341.324000",
          "173341.324000",
          "173341.324000",
          "173341.324000",
          "173341.324000",
          "173341.340000",
          "173341.340000",
          "173341.340000",
          "173341.340000",
          "173341.340000",
          "173341.340000",
          "173341.355000",
          "173341.355000",
          "173341.355000",
          "173341.355000",
          "173341.355000",
          "173341.355000",
          "173421.308000",
          "173421.308000",
          "173421.308000",
          "173421.308000",
          "173421.308000",
          "173421.324000",
          "173421.324000",
          "173421.324000",
          "173421.324000",
          "173421.324000",
          "173421.324000",
          "173421.340000",
          "173421.340000",
          "173421.340000",
          "173421.340000",
          "173421.340000",
          "173421.340000",
          "173421.355000",
          "173421.355000",
          "173421.355000",
          "173501.308000",
          "173501.308000",
          "173501.308000",
          "173501.308000",
          "173501.308000",
          "173501.324000",
          "173501.324000",
          "173501.324000",
          "173501.324000",
          "173501.324000",
          "173501.324000",
          "173501.340000",
          "173501.340000",
          "173501.340000",
          "173501.340000",
          "173501.340000",
          "173501.340000",
          "173501.355000",
          "173501.355000",
          "173501.355000",
          "173541.308000",
          "173541.308000",
          "173541.308000",
          "173541.308000",
          "173541.308000",
          "173541.324000",
          "173541.324000",
          "173541.324000",
          "173541.324000",
          "173541.324000",
          "173541.340000",
          "173541.340000",
          "173541.340000",
          "173541.340000",
          "173541.340000",
          "173541.340000",
          "173541.355000",
          "173541.355000",
          "173541.355000",
          "173541.355000",
          "173548.980000",
          "173548.980000",
          "173548.980000",
          "173548.980000"
        ],
        "InstanceCreationTime": [
          "173101.324000",
          "173101.324000",
          "173101.324000",
          "173101.340000",
          "173101.340000",
          "173101.340000",
          "173101.340000",
          "173101.340000",
          "173101.355000",
          "173101.355000",
          "173101.355000",
          "173101.355000",
          "173101.355000",
          "173101.355000",
          "173101.355000",
          "173101.371000",
          "173101.371000",
          "173101.371000",
          "173101.371000",
          "173101.371000",
          "173141.308000",
          "173141.308000",
          "173141.308000",
          "173141.308000",
          "173141.308000",
          "173141.324000",
          "173141.324000",
          "173141.324000",
          "173141.324000",
          "173141.324000",
          "173141.324000",
          "173141.324000",
          "173141.340000",
          "173141.340000",
          "173141.340000",
          "173141.340000",
          "173141.355000",
          "173141.355000",
          "173141.355000",
          "173141.355000",
          "173221.308000",
          "173221.308000",
          "173221.308000",
          "173221.308000",
          "173221.308000",
          "173221.324000",
          "173221.324000",
          "173221.324000",
          "173221.324000",
          "173221.340000",
          "173221.340000",
          "173221.340000",
          "173221.340000",
          "173221.340000",
          "173221.340000",
          "173221.355000",
          "173221.355000",
          "173221.355000",
          "173221.355000",
          "173221.355000",
          "173301.308000",
          "173301.308000",
          "173301.308000",
          "173301.308000",
          "173301.308000",
          "173301.324000",
          "173301.324000",
          "173301.324000",
          "173301.324000",
          "173301.324000",
          "173301.340000",
          "173301.340000",
          "173301.340000",
          "173301.340000",
          "173301.340000",
          "173301.340000",
          "173301.355000",
          "173301.355000",
          "173301.355000",
          "173301.355000",
          "173341.308000",
          "173341.308000",
          "173341.308000",
          "173341.324000",
          "173341.324000",
          "173341.324000",
          "173341.324000",
          "173341.324000",
          "173341.340000",
          "173341.340000",
          "173341.340000",
          "173341.340000",
          "173341.340000",
          "173341.340000",
          "173341.355000",
          "173341.355000",
          "173341.355000",
          "173341.355000",
          "173341.355000",
          "173341.355000",
          "173421.308000",
          "173421.308000",
          "173421.308000",
          "173421.308000",
          "173421.308000",
          "173421.324000",
          "173421.324000",
          "173421.324000",
          "173421.324000",
          "173421.324000",
          "173421.324000",
          "173421.340000",
          "173421.340000",
          "173421.340000",
          "173421.340000",
          "173421.340000",
          "173421.340000",
          "173421.355000",
          "173421.355000",
          "173421.355000",
          "173501.308000",
          "173501.308000",
          "173501.308000",
          "173501.308000",
          "173501.308000",
          "173501.324000",
          "173501.324000",
          "173501.324000",
          "173501.324000",
          "173501.324000",
          "173501.324000",
          "173501.340000",
          "173501.340000",
          "173501.340000",
          "173501.340000",
          "173501.340000",
          "173501.340000",
          "173501.355000",
          "173501.355000",
          "173501.355000",
          "173541.308000",
          "173541.308000",
          "173541.308000",
          "173541.308000",
          "173541.308000",
          "173541.324000",
          "173541.324000",
          "173541.324000",
          "173541.324000",
          "173541.324000",
          "173541.340000",
          "173541.340000",
          "173541.340000",
          "173541.340000",
          "173541.340000",
          "173541.340000",
          "173541.355000",
          "173541.355000",
          "173541.355000",
          "173541.355000",
          "173548.980000",
          "173548.980000",
          "173548.980000",
          "173548.980000"
        ],
        "InstanceNumber": [
          1,
          2,
          3,
          4,
          5,
          6,
          7,
          8,
          9,
          10,
          11,
          12,
          13,
          14,
          15,
          16,
          17,
          18,
          19,
          20,
          21,
          22,
          23,
          24,
          25,
          26,
          27,
          28,
          29,
          30,
          31,
          32,
          33,
          34,
          35,
          36,
          37,
          38,
          39,
          40,
          41,
          42,
          43,
          44,
          45,
          46,
          47,
          48,
          49,
          50,
          51,
          52,
          53,
          54,
          55,
          56,
          57,
          58,
          59,
          60,
          61,
          62,
          63,
          64,
          65,
          66,
          67,
          68,
          69,
          70,
          71,
          72,
          73,
          74,
          75,
          76,
          77,
          78,
          79,
          80,
          81,
          82,
          83,
          84,
          85,
          86,
          87,
          88,
          89,
          90,
          91,
          92,
          93,
          94,
          95,
          96,
          97,
          98,
          99,
          100,
          101,
          102,
          103,
          104,
          105,
          106,
          107,
          108,
          109,
          110,
          111,
          112,
          113,
          114,
          115,
          116,
          117,
          118,
          119,
          120,
          121,
          122,
          123,
          124,
          125,
          126,
          127,
          128,
          129,
          130,
          131,
          132,
          133,
          134,
          135,
          136,
          137,
          138,
          139,
          140,
          141,
          142,
          143,
          144,
          145,
          146,
          147,
          148,
          149,
          150,
          151,
          152,
          153,
          154,
          155,
          156,
          157,
          158,
          159,
          160,
          161,
          162,
          163,
          164
        ],
        "WindowCenter": [
          978.0,
          978.0,
          979.0,
          979.0,
          978.0,
          979.0,
          980.0,
          979.0,
          978.0,
          977.0,
          977.0,
          977.0,
          977.0,
          978.0,
          978.0,
          978.0,
          978.0,
          978.0,
          978.0,
          978.0,
          978.0,
          977.0,
          978.0,
          978.0,
          978.0,
          978.0,
          978.0,
          978.0,
          980.0,
          979.0,
          978.0,
          978.0,
          978.0,
          979.0,
          979.0,
          978.0,
          977.0,
          978.0,
          977.0,
          977.0,
          977.0,
          977.0,
          976.0,
          978.0,
          977.0,
          976.0,
          976.0,
          977.0,
          977.0,
          978.0,
          978.0,
          978.0,
          978.0,
          977.0,
          977.0,
          977.0,
          977.0,
          977.0,
          977.0,
          976.0,
          978.0,
          977.0,
          977.0,
          978.0,
          979.0,
          978.0,
          978.0,
          978.0,
          977.0,
          977.0,
          976.0,
          976.0,
          976.0,
          976.0,
          976.0,
          976.0,
          977.0,
          977.0,
          978.0,
          979.0,
          977.0,
          976.0,
          976.0,
          977.0,
          978.0,
          977.0,
          977.0,
          978.0,
          980.0,
          978.0,
          978.0,
          976.0,
          975.0,
          976.0,
          977.0,
          977.0,
          976.0,
          976.0,
          975.0,
          975.0,
          975.0,
          976.0,
          975.0,
          975.0,
          976.0,
          975.0,
          976.0,
          978.0,
          979.0,
          978.0,
          976.0,
          976.0,
          976.0,
          975.0,
          975.0,
          977.0,
          976.0,
          975.0,
          976.0,
          975.0,
          975.0,
          976.0,
          975.0,
          976.0,
          975.0,
          975.0,
          976.0,
          977.0,
          976.0,
          976.0,
          975.0,
          976.0,
          976.0,
          975.0,
          975.0,
          975.0,
          974.0,
          975.0,
          975.0,
          975.0,
          974.0,
          974.0,
          975.0,
          975.0,
          976.0,
          976.0,
          975.0,
          974.0,
          974.0,
          976.0,
          975.0,
          975.0,
          975.0,
          976.0,
          976.0,
          975.0,
          975.0,
          975.0,
          975.0,
          975.0,
          974.0,
          974.0,
          975.0,
          975.0
        ],
        "WindowWidth": [
          2580.0,
          2584.0,
          2586.0,
          2585.0,
          2584.0,
          2584.0,
          2588.0,
          2590.0,
          2583.0,
          2578.0,
          2577.0,
          2579.0,
          2582.0,
          2582.0,
          2581.0,
          2584.0,
          2589.0,
          2583.0,
          2578.0,
          2577.0,
          2579.0,
          2578.0,
          2579.0,
          2580.0,
          2580.0,
          2583.0,
          2583.0,
          2583.0,
          2586.0,
          2587.0,
          2584.0,
          2585.0,
          2587.0,
          2589.0,
          2586.0,
          2584.0,
          2582.0,
          2585.0,
          2585.0,
          2587.0,
          2586.0,
          2584.0,
          2584.0,
          2584.0,
          2582.0,
          2580.0,
          2581.0,
          2583.0,
          2581.0,
          2580.0,
          2583.0,
          2583.0,
          2582.0,
          2581.0,
          2582.0,
          2579.0,
          2579.0,
          2581.0,
          2579.0,
          2578.0,
          2582.0,
          2584.0,
          2586.0,
          2591.0,
          2592.0,
          2589.0,
          2586.0,
          2585.0,
          2583.0,
          2579.0,
          2580.0,
          2578.0,
          2574.0,
          2576.0,
          2579.0,
          2581.0,
          2582.0,
          2581.0,
          2581.0,
          2582.0,
          2579.0,
          2572.0,
          2571.0,
          2575.0,
          2576.0,
          2579.0,
          2583.0,
          2591.0,
          2594.0,
          2592.0,
          2582.0,
          2572.0,
          2570.0,
          2574.0,
          2577.0,
          2574.0,
          2572.0,
          2572.0,
          2572.0,
          2575.0,
          2574.0,
