{
  "aor": 0.0014122560975609755,
  "aqi": 0.003641085487804878,
  "bids_meta": {
    "AcquisitionMatrixPE": 96,
    "AcquisitionNumber": 1,
    "AcquisitionTime": "16:33:20.595000",
    "BandwidthPerPixelPhaseEncode": 52.083,
    "BaseResolution": 96,
    "BodyPartExamined": "HEAD",
    "ConversionSoftware": "dcm2niix",
    "ConversionSoftwareVersion": "v1.0.20180622 GCC6.3.0",
    "DerivedVendorReportedEchoSpacing": 0.000600004,
    "DeviceSerialNumber": "18926",
    "DwellTime": 2.6e-06,
    "EchoTime": 0.025,
    "EffectiveEchoSpacing": 0.000200001,
    "FlipAngle": 50,
    "ImageOrientationPatientDICOM": [
      1,
      -2.05103e-10,
      0,
      2.05103e-10,
      1,
      0
    ],
    "ImageType": [
      "ORIGINAL",
      "PRIMARY",
      "M",
      "ND",
      "ECHO",
      "00",
      "MOSAIC"
    ],
    "InPlanePhaseEncodingDirectionDICOM": "ROW",
    "InstitutionName": "NIMH",
    "InstitutionalDepartmentName": "Department",
    "MRAcquisitionType": "2D",
    "MagneticFieldStrength": 6.98,
    "Manufacturer": "Siemens",
    "ManufacturersModelName": "Investigational_Device_7T",
    "Modality": "MR",
    "ParallelReductionFactorInPlane": 3,
    "PartialFourier": 1,
    "PatientPosition": "HFS",
    "PercentPhaseFOV": 100,
    "PhaseEncodingDirection": "i",
    "PhaseEncodingSteps": 94,
    "PhaseResolution": 1,
    "PixelBandwidth": 2003,
    "ProcedureStepDescription": "MRI_Procedure_Limited",
    "ProtocolName": "NIH_EPI_2.0iso_TR2_Run01.2",
    "PulseSequenceDetails": "%CustomerSeq%_inati_nih_epi",
    "ReceiveCoilName": "32Ch_Head_7T",
    "ReconMatrixPE": 96,
    "RepetitionTime": 2,
    "SAR": 0.0812167,
    "ScanningSequence": "EP",
    "SequenceName": "epfid2d1_96",
    "SequenceVariant": "SK",
    "SeriesDescription": "NIH_EPI_2.0iso_TR2_Run01.2",
    "SeriesNumber": 7,
    "ShimSetting": [
      -120,
      133,
      1277,
      2388,
      -223,
      615,
      308,
      -340
    ],
    "SliceThickness": 2,
    "SliceTiming": [
      1.0025,
      0,
      1.04,
      0.035,
      1.0775,
      0.0725,
      1.115,
      0.11,
      1.1525,
      0.1475,
      1.1875,
      0.185,
      1.225,
      0.2225,
      1.2625,
      0.26,
      1.3,
      0.2975,
      1.3375,
      0.3325,
      1.375,
      0.37,
      1.4125,
      0.4075,
      1.45,
      0.445,
      1.485,
      0.4825,
      1.5225,
      0.52,
      1.56,
      0.5575,
      1.5975,
      0.595,
      1.635,
      0.63,
      1.6725,
      0.6675,
      1.71,
      0.705,
      1.7475,
      0.7425,
      1.7825,
      0.78,
      1.82,
      0.8175,
      1.8575,
      0.855,
      1.895,
      0.8925,
      1.9325,
      0.9275,
      1.97,
      0.965
    ],
    "SoftwareVersions": "syngo_MR_B17",
    "SpacingBetweenSlices": 2,
    "StationName": "FMRIFD7T",
    "TaskName": "FullFovAttentionTask",
    "TotalReadoutTime": 0.0190001,
    "TxRefAmp": 286,
    "dataset": "ds001555",
    "dcmmeta_affine": [
      [
        -2.0,
        4.1020681296188855e-10,
        0.0,
        95.98538208007812
      ],
      [
        4.1020681296188855e-10,
        2.0,
        0.0,
        -72.42303466796875
      ],
      [
        0.0,
        0.0,
        2.0,
        -30.593246459960938
      ],
      [
        0.0,
        0.0,
        0.0,
        1.0
      ]
    ],
    "dcmmeta_reorient_transform": [
      [
        0.0,
        -1.0,
        0.0,
        95.0
      ],
      [
        1.0,
        0.0,
        0.0,
        0.0
      ],
      [
        0.0,
        0.0,
        1.0,
        0.0
      ],
      [
        0.0,
        0.0,
        0.0,
        1.0
      ]
    ],
    "dcmmeta_shape": [
      96,
      96,
      54,
      164
    ],
    "dcmmeta_slice_dim": 2,
    "dcmmeta_version": 0.6,
    "global": {
      "const": {
        "AcquisitionMatrix": [
          0,
          96,
          96,
          0
        ],
        "Allergies": "No Known Allergies",
        "AngioFlag": "N",
        "BitsAllocated": 16,
        "BitsStored": 12,
        "BodyPartExamined": "HEAD",
        "Columns": 768,
        "EchoNumbers": 1,
        "EchoTime": 25.0,
        "EchoTrainLength": 1,
        "FlipAngle": 50.0,
        "HighBit": 11,
        "ImageOrientationPatient": [
          1.0,
          -2.051034e-10,
          0.0,
          2.051034e-10,
          1.0,
          0.0
        ],
        "ImagePositionPatient": [
          -767.98537955166,
          -789.57696326716,
          -30.593246459961
        ],
        "ImageType": [
          "ORIGINAL",
          "PRIMARY",
          "M",
          "ND",
          "ECHO_00",
          "MOSAIC"
        ],
        "ImagedNucleus": "1H",
        "ImagingFrequency": 297.204838,
        "InPlanePhaseEncodingDirection": "ROW",
        "LargestImagePixelValue": 4095,
        "MRAcquisitionType": "2D",
        "MagneticFieldStrength": 6.98,
        "Manufacturer": "SIEMENS",
        "ManufacturerModelName": "Investigational_Device_7T",
        "Modality": "MR",
        "NumberOfAverages": 1.0,
        "NumberOfPhaseEncodingSteps": 94,
        "PercentPhaseFieldOfView": 100.0,
        "PercentSampling": 100.0,
        "PerformedProcedureStepStartTime": "161157.887000",
        "PhotometricInterpretation": "MONOCHROME2",
        "PixelBandwidth": 2003.0,
        "PixelRepresentation": 0,
        "PixelSpacing": [
          2.0,
          2.0
        ],
        "PositionReferenceIndicator": "",
        "ProcedureCodeSequence": [
          {
            "CodeMeaning": "MRI Procedure Limited",
            "CodeValue": "MI01491",
            "CodingSchemeDesignator": "USA Standard",
            "ContextIdentifier": "4000133395"
          }
        ],
        "ProtocolName": "NIH_EPI_2.0iso_TR2_Run01.2",
        "ReferencedStudySequence": [
          {
            "ReferencedSOPClassUID": "1.2.840.10008.3.1.2.3.1",
            "ReferencedSOPInstanceUID": "1.2.840.113564.9.1.2787814059.53.2.5000099245"
          }
        ],
        "RepetitionTime": 2000.0,
        "RequestedProcedureCodeSequence": [
          {
            "CodeMeaning": "MRI Procedure Limited",
            "CodeValue": "MI01491",
            "CodingSchemeDesignator": "USA Standard",
            "ContextIdentifier": "4000133395"
          }
        ],
        "RequestingService": "NIMH Molecular Imaging Branch",
        "Rows": 768,
        "SAR": 0.08121674495792,
        "SamplesPerPixel": 1,
        "ScanningSequence": "EP",
        "SequenceName": "epfid2d1_96",
        "SequenceVariant": "SK",
        "SeriesDescription": "NIH_EPI_2.0iso_TR2_Run01.2",
        "SeriesNumber": 7,
        "SliceLocation": -30.593246459961,
        "SliceThickness": 2.0,
        "SmallestImagePixelValue": 0,
        "SoftwareVersions": "syngo MR B17",
        "SpacingBetweenSlices": 2.0,
        "TransmitCoilName": "32Ch_Head_7T",
        "VariableFlipAngleFlag": "N",
        "WindowCenterWidthExplanation": "Algo1",
        "dBdt": 0.0
      },
      "slices": {}
    },
    "modality": "bold",
    "run_id": 4,
    "session_id": "09",
    "subject_id": "003",
    "task_id": "FullFovAttentionTask",
    "time": {
      "samples": {
        "AcquisitionNumber": [
          1,
          2,
          3,
          4,
          5,
          6,
          7,
          8,
          9,
          10,
          11,
          12,
          13,
          14,
          15,
          16,
          17,
          18,
          19,
          20,
          21,
          22,
          23,
          24,
          25,
          26,
          27,
          28,
          29,
          30,
          31,
          32,
          33,
          34,
          35,
          36,
          37,
          38,
          39,
          40,
          41,
          42,
          43,
          44,
          45,
          46,
          47,
          48,
          49,
          50,
          51,
          52,
          53,
          54,
          55,
          56,
          57,
          58,
          59,
          60,
          61,
          62,
          63,
          64,
          65,
          66,
          67,
          68,
          69,
          70,
          71,
          72,
          73,
          74,
          75,
          76,
          77,
          78,
          79,
          80,
          81,
          82,
          83,
          84,
          85,
          86,
          87,
          88,
          89,
          90,
          91,
          92,
          93,
          94,
          95,
          96,
          97,
          98,
          99,
          100,
          101,
          102,
          103,
          104,
          105,
          106,
          107,
          108,
          109,
          110,
          111,
          112,
          113,
          114,
          115,
          116,
          117,
          118,
          119,
          120,
          121,
          122,
          123,
          124,
          125,
          126,
          127,
          128,
          129,
          130,
          131,
          132,
          133,
          134,
          135,
          136,
          137,
          138,
          139,
          140,
          141,
          142,
          143,
          144,
          145,
          146,
          147,
          148,
          149,
          150,
          151,
          152,
          153,
          154,
          155,
          156,
          157,
          158,
          159,
          160,
          161,
          162,
          163,
          164
        ],
        "AcquisitionTime": [
          "163320.595000",
          "163324.612500",
          "163326.620000",
          "163328.627500",
          "163330.635000",
          "163332.642500",
          "163334.652500",
          "163336.660000",
          "163338.667500",
          "163340.675000",
          "163342.682500",
          "163344.692500",
          "163346.700000",
          "163348.707500",
          "163350.715000",
          "163352.725000",
          "163354.732500",
          "163356.740000",
          "163358.747500",
          "163400.755000",
          "163402.765000",
          "163404.772500",
          "163406.780000",
          "163408.787500",
          "163410.795000",
          "163412.805000",
          "163414.812500",
          "163416.820000",
          "163418.827500",
          "163420.837500",
          "163422.845000",
          "163424.852500",
          "163426.860000",
          "163428.867500",
          "163430.877500",
          "163432.885000",
          "163434.892500",
          "163436.900000",
          "163438.907500",
          "163440.917500",
          "163442.925000",
          "163444.932500",
          "163446.940000",
          "163448.947500",
          "163450.957500",
          "163452.965000",
          "163454.972500",
          "163456.980000",
          "163458.990000",
          "163500.997500",
          "163503.005000",
          "163505.012500",
          "163507.020000",
          "163509.030000",
          "163511.037500",
          "163513.045000",
          "163515.052500",
          "163517.060000",
          "163519.070000",
          "163521.077500",
          "163523.085000",
          "163525.092500",
          "163527.102500",
          "163529.110000",
          "163531.117500",
          "163533.125000",
          "163535.132500",
          "163537.142500",
          "163539.150000",
          "163541.157500",
          "163543.165000",
          "163545.172500",
          "163547.182500",
          "163549.190000",
          "163551.197500",
          "163553.205000",
          "163555.215000",
          "163557.222500",
          "163559.230000",
          "163601.237500",
          "163603.245000",
          "163605.255000",
          "163607.262500",
          "163609.270000",
          "163611.277500",
          "163613.285000",
          "163615.295000",
          "163617.302500",
          "163619.310000",
          "163621.317500",
          "163623.325000",
          "163625.335000",
          "163627.342500",
          "163629.350000",
          "163631.357500",
          "163633.367500",
          "163635.375000",
          "163637.382500",
          "163639.390000",
          "163641.397500",
          "163643.407500",
          "163645.415000",
          "163647.422500",
          "163649.430000",
          "163651.437500",
          "163653.447500",
          "163655.455000",
          "163657.462500",
          "163659.470000",
          "163701.480000",
          "163703.487500",
          "163705.495000",
          "163707.502500",
          "163709.510000",
          "163711.520000",
          "163713.527500",
          "163715.535000",
          "163717.542500",
          "163719.550000",
          "163721.560000",
          "163723.567500",
          "163725.575000",
          "163727.582500",
          "163729.592500",
          "163731.600000",
          "163733.607500",
          "163735.615000",
          "163737.622500",
          "163739.632500",
          "163741.640000",
          "163743.647500",
          "163745.655000",
          "163747.662500",
          "163749.672500",
          "163751.680000",
          "163753.687500",
          "163755.695000",
          "163757.702500",
          "163759.712500",
          "163801.720000",
          "163803.727500",
          "163805.735000",
          "163807.745000",
          "163809.752500",
          "163811.760000",
          "163813.767500",
          "163815.775000",
          "163817.785000",
          "163819.792500",
          "163821.800000",
          "163823.807500",
          "163825.815000",
          "163827.825000",
          "163829.832500",
          "163831.840000",
          "163833.847500",
          "163835.857500",
          "163837.865000",
          "163839.872500",
          "163841.880000",
          "163843.887500",
          "163845.897500",
          "163847.905000",
          "163849.912500"
        ],
        "ContentTime": [
          "163326.902000",
          "163326.902000",
          "163406.887000",
          "163406.887000",
          "163406.887000",
          "163406.902000",
          "163406.902000",
          "163406.902000",
          "163406.902000",
          "163406.902000",
          "163406.918000",
          "163406.918000",
          "163406.918000",
          "163406.918000",
          "163406.933000",
          "163406.933000",
          "163406.933000",
          "163406.933000",
          "163406.933000",
          "163406.933000",
          "163406.933000",
          "163406.949000",
          "163446.887000",
          "163446.887000",
          "163446.887000",
          "163446.887000",
          "163446.887000",
          "163446.902000",
          "163446.902000",
          "163446.902000",
          "163446.902000",
          "163446.918000",
          "163446.918000",
          "163446.918000",
          "163446.918000",
          "163446.918000",
          "163446.918000",
          "163446.918000",
          "163446.933000",
          "163446.933000",
          "163446.933000",
          "163446.933000",
          "163526.887000",
          "163526.887000",
          "163526.887000",
          "163526.887000",
          "163526.887000",
          "163526.902000",
          "163526.902000",
          "163526.902000",
          "163526.902000",
          "163526.918000",
          "163526.918000",
          "163526.918000",
          "163526.918000",
          "163526.918000",
          "163526.918000",
          "163526.918000",
          "163526.933000",
          "163526.933000",
          "163526.933000",
          "163526.933000",
          "163606.887000",
          "163606.887000",
          "163606.887000",
          "163606.887000",
          "163606.887000",
          "163606.902000",
          "163606.902000",
          "163606.902000",
          "163606.902000",
          "163606.902000",
          "163606.902000",
          "163606.902000",
          "163606.918000",
          "163606.918000",
          "163606.918000",
          "163606.918000",
          "163606.918000",
          "163606.918000",
          "163606.918000",
          "163606.933000",
          "163646.887000",
          "163646.887000",
          "163646.887000",
          "163646.887000",
          "163646.887000",
          "163646.902000",
          "163646.902000",
          "163646.902000",
          "163646.902000",
          "163646.918000",
          "163646.918000",
          "163646.918000",
          "163646.918000",
          "163646.918000",
          "163646.918000",
          "163646.933000",
          "163646.933000",
          "163646.933000",
          "163646.933000",
          "163646.933000",
          "163726.887000",
          "163726.887000",
          "163726.887000",
          "163726.887000",
          "163726.887000",
          "163726.902000",
          "163726.902000",
          "163726.902000",
          "163726.902000",
          "163726.902000",
          "163726.902000",
          "163726.918000",
          "163726.918000",
          "163726.918000",
          "163726.918000",
          "163726.918000",
          "163726.918000",
          "163726.933000",
          "163726.933000",
          "163726.933000",
          "163806.887000",
          "163806.887000",
          "163806.887000",
          "163806.887000",
          "163806.887000",
          "163806.902000",
          "163806.902000",
          "163806.902000",
          "163806.902000",
          "163806.902000",
          "163806.902000",
          "163806.918000",
          "163806.918000",
          "163806.918000",
          "163806.918000",
          "163806.918000",
          "163806.918000",
          "163806.933000",
          "163806.933000",
          "163806.933000",
          "163846.887000",
          "163846.887000",
          "163846.887000",
          "163846.887000",
          "163846.887000",
          "163846.902000",
          "163846.902000",
          "163846.902000",
          "163846.902000",
          "163846.902000",
          "163846.902000",
          "163846.902000",
          "163846.918000",
          "163846.918000",
          "163846.918000",
          "163846.918000",
          "163846.918000",
          "163846.918000",
          "163846.918000",
          "163846.933000",
          "163850.199000",
          "163850.199000"
        ],
        "InstanceCreationTime": [
          "163326.902000",
          "163326.902000",
          "163406.887000",
          "163406.887000",
          "163406.887000",
          "163406.902000",
          "163406.902000",
          "163406.902000",
          "163406.902000",
          "163406.902000",
          "163406.918000",
          "163406.918000",
          "163406.918000",
          "163406.918000",
          "163406.933000",
          "163406.933000",
          "163406.933000",
          "163406.933000",
          "163406.933000",
          "163406.933000",
          "163406.933000",
          "163406.949000",
          "163446.887000",
          "163446.887000",
          "163446.887000",
          "163446.887000",
          "163446.887000",
          "163446.902000",
          "163446.902000",
          "163446.902000",
          "163446.902000",
          "163446.918000",
          "163446.918000",
          "163446.918000",
          "163446.918000",
          "163446.918000",
          "163446.918000",
          "163446.918000",
          "163446.933000",
          "163446.933000",
          "163446.933000",
          "163446.933000",
          "163526.887000",
          "163526.887000",
          "163526.887000",
          "163526.887000",
          "163526.887000",
          "163526.902000",
          "163526.902000",
          "163526.902000",
          "163526.902000",
          "163526.918000",
          "163526.918000",
          "163526.918000",
          "163526.918000",
          "163526.918000",
          "163526.918000",
          "163526.918000",
          "163526.933000",
          "163526.933000",
          "163526.933000",
          "163526.933000",
          "163606.887000",
          "163606.887000",
          "163606.887000",
          "163606.887000",
          "163606.887000",
          "163606.902000",
          "163606.902000",
          "163606.902000",
          "163606.902000",
          "163606.902000",
          "163606.902000",
          "163606.902000",
          "163606.918000",
          "163606.918000",
          "163606.918000",
          "163606.918000",
          "163606.918000",
          "163606.918000",
          "163606.918000",
          "163606.933000",
          "163646.887000",
          "163646.887000",
          "163646.887000",
          "163646.887000",
          "163646.887000",
          "163646.902000",
          "163646.902000",
          "163646.902000",
          "163646.902000",
          "163646.918000",
          "163646.918000",
          "163646.918000",
          "163646.918000",
          "163646.918000",
          "163646.918000",
          "163646.933000",
          "163646.933000",
          "163646.933000",
          "163646.933000",
          "163646.933000",
          "163726.887000",
          "163726.887000",
          "163726.887000",
          "163726.887000",
          "163726.887000",
          "163726.902000",
          "163726.902000",
          "163726.902000",
          "163726.902000",
          "163726.902000",
          "163726.902000",
          "163726.918000",
          "163726.918000",
          "163726.918000",
          "163726.918000",
          "163726.918000",
          "163726.918000",
          "163726.933000",
          "163726.933000",
          "163726.933000",
          "163806.887000",
          "163806.887000",
          "163806.887000",
          "163806.887000",
          "163806.887000",
          "163806.902000",
          "163806.902000",
          "163806.902000",
          "163806.902000",
          "163806.902000",
          "163806.902000",
          "163806.918000",
          "163806.918000",
          "163806.918000",
          "163806.918000",
          "163806.918000",
          "163806.918000",
          "163806.933000",
          "163806.933000",
          "163806.933000",
          "163846.887000",
          "163846.887000",
          "163846.887000",
          "163846.887000",
          "163846.887000",
          "163846.902000",
          "163846.902000",
          "163846.902000",
          "163846.902000",
          "163846.902000",
          "163846.902000",
          "163846.902000",
          "163846.918000",
          "163846.918000",
          "163846.918000",
          "163846.918000",
          "163846.918000",
          "163846.918000",
          "163846.918000",
          "163846.933000",
          "163850.199000",
          "163850.199000"
        ],
        "InstanceNumber": [
          1,
          2,
          3,
          4,
          5,
          6,
          7,
          8,
          9,
          10,
          11,
          12,
          13,
          14,
          15,
          16,
          17,
          18,
          19,
          20,
          21,
          22,
          23,
          24,
          25,
          26,
          27,
          28,
          29,
          30,
          31,
          32,
          33,
          34,
          35,
          36,
          37,
          38,
          39,
          40,
          41,
          42,
          43,
          44,
          45,
          46,
          47,
          48,
          49,
          50,
          51,
          52,
          53,
          54,
          55,
          56,
          57,
          58,
          59,
          60,
          61,
          62,
          63,
          64,
          65,
          66,
          67,
          68,
          69,
          70,
          71,
          72,
          73,
          74,
          75,
          76,
          77,
          78,
          79,
          80,
          81,
          82,
          83,
          84,
          85,
          86,
          87,
          88,
          89,
          90,
          91,
          92,
          93,
          94,
          95,
          96,
          97,
          98,
          99,
          100,
          101,
          102,
          103,
          104,
          105,
          106,
          107,
          108,
          109,
          110,
          111,
          112,
          113,
          114,
          115,
          116,
          117,
          118,
          119,
          120,
          121,
          122,
          123,
          124,
          125,
          126,
          127,
          128,
          129,
          130,
          131,
          132,
          133,
          134,
          135,
          136,
          137,
          138,
          139,
          140,
          141,
          142,
          143,
          144,
          145,
          146,
          147,
          148,
          149,
          150,
          151,
          152,
          153,
          154,
          155,
          156,
          157,
          158,
          159,
          160,
          161,
          162,
          163,
          164
        ],
        "WindowCenter": [
          987.0,
          988.0,
          987.0,
          987.0,
          986.0,
          987.0,
          986.0,
          985.0,
          985.0,
          985.0,
          986.0,
          986.0,
          985.0,
          986.0,
          986.0,
          986.0,
          987.0,
          987.0,
          987.0,
          986.0,
          986.0,
          986.0,
          986.0,
          986.0,
          986.0,
          986.0,
          986.0,
          987.0,
          987.0,
          988.0,
          988.0,
          988.0,
          986.0,
          986.0,
          986.0,
          986.0,
          985.0,
          986.0,
          987.0,
          987.0,
          985.0,
          985.0,
          984.0,
          985.0,
          985.0,
          985.0,
          985.0,
          986.0,
          987.0,
          987.0,
          986.0,
          985.0,
          985.0,
          986.0,
          986.0,
          985.0,
          985.0,
          986.0,
          986.0,
          985.0,
          986.0,
          987.0,
          986.0,
          986.0,
          985.0,
          985.0,
          985.0,
          985.0,
          985.0,
          985.0,
          986.0,
          985.0,
          985.0,
          985.0,
          984.0,
          985.0,
          986.0,
          985.0,
          985.0,
          986.0,
          986.0,
          986.0,
          985.0,
          985.0,
          985.0,
          986.0,
          986.0,
          985.0,
          985.0,
          986.0,
          985.0,
          985.0,
          986.0,
          986.0,
          985.0,
          984.0,
          985.0,
          985.0,
          986.0,
          986.0,
          986.0,
          985.0,
          984.0,
          985.0,
          985.0,
          986.0,
          986.0,
          986.0,
          987.0,
          986.0,
          987.0,
          986.0,
          986.0,
          986.0,
          986.0,
          986.0,
          987.0,
          986.0,
          987.0,
          987.0,
          987.0,
          986.0,
          985.0,
          985.0,
          986.0,
          986.0,
          986.0,
          985.0,
          984.0,
          985.0,
          987.0,
          986.0,
          985.0,
          985.0,
          985.0,
          985.0,
          986.0,
          986.0,
          986.0,
          986.0,
          985.0,
          985.0,
          985.0,
          986.0,
          986.0,
          985.0,
          985.0,
          985.0,
          986.0,
          986.0,
          986.0,
          986.0,
          987.0,
          986.0,
          986.0,
          986.0,
          985.0,
          986.0,
          987.0,
          986.0,
          986.0,
          987.0,
          987.0,
          986.0
        ],
        "WindowWidth": [
          2626.0,
          2630.0,
          2631.0,
          2628.0,
          2625.0,
          2626.0,
          2629.0,
          2628.0,
          2625.0,
          2629.0,
          2629.0,
          2627.0,
          2628.0,
          2631.0,
          2631.0,
          2632.0,
          2632.0,
          2634.0,
          2634.0,
          2631.0,
          2628.0,
          2625.0,
          2623.0,
          2624.0,
          2626.0,
          2625.0,
          2625.0,
          2627.0,
          2630.0,
          2633.0,
          2634.0,
          2632.0,
          2630.0,
          2629.0,
          2628.0,
          2626.0,
          2627.0,
          2628.0,
          2634.0,
          2633.0,
          2628.0,
          2625.0,
          2625.0,
          2627.0,
          2630.0,
          2632.0,
          2630.0,
          2629.0,
          2627.0,
          2626.0,
          2625.0,
          2625.0,
          2626.0,
          2623.0,
          2622.0,
          2623.0,
          2625.0,
          2632.0,
          2631.0,
          2626.0,
          2628.0,
          2629.0,
          2627.0,
          2624.0,
          2622.0,
          2623.0,
          2624.0,
          2623.0,
          2623.0,
          2626.0,
          2630.0,
          2630.0,
          2626.0,
          2624.0,
          2625.0,
          2626.0,
          2626.0,
          2622.0,
          2620.0,
          2621.0,
          2627.0,
          2624.0,
          2620.0,
          2619.0,
          2621.0,
          2623.0,
          2621.0,
          2619.0,
          2620.0,
          2620.0,
          2618.0,
          2620.0,
          2622.0,
          2621.0,
          2620.0,
          2620.0,
          2623.0,
          2623.0,
          2625.0,
          2628.0,
          2626.0,
