{
  "aor": 0.0050064634146341465,
  "aqi": 0.008524542500000001,
  "bids_meta": {
    "AcquisitionMatrixPE": 96,
    "AcquisitionNumber": 1,
    "AcquisitionTime": "17:37:57.032500",
    "BandwidthPerPixelPhaseEncode": 52.083,
    "BaseResolution": 96,
    "BodyPartExamined": "HEAD",
    "ConversionSoftware": "dcm2niix",
    "ConversionSoftwareVersion": "v1.0.20180622 GCC6.3.0",
    "DerivedVendorReportedEchoSpacing": 0.000600004,
    "DeviceSerialNumber": "18926",
    "DwellTime": 2.6e-06,
    "EchoTime": 0.025,
    "EffectiveEchoSpacing": 0.000200001,
    "FlipAngle": 50,
    "ImageOrientationPatientDICOM": [
      1,
      -2.05103e-10,
      0,
      2.05103e-10,
      1,
      0
    ],
    "ImageType": [
      "ORIGINAL",
      "PRIMARY",
      "M",
      "ND",
      "ECHO",
      "00",
      "MOSAIC"
    ],
    "InPlanePhaseEncodingDirectionDICOM": "ROW",
    "InstitutionName": "NIMH",
    "InstitutionalDepartmentName": "Department",
    "MRAcquisitionType": "2D",
    "MagneticFieldStrength": 6.98,
    "Manufacturer": "Siemens",
    "ManufacturersModelName": "Investigational_Device_7T",
    "Modality": "MR",
    "ParallelReductionFactorInPlane": 3,
    "PartialFourier": 1,
    "PatientPosition": "HFS",
    "PercentPhaseFOV": 100,
    "PhaseEncodingDirection": "i",
    "PhaseEncodingSteps": 94,
    "PhaseResolution": 1,
    "PixelBandwidth": 2003,
    "ProcedureStepDescription": "MRI_Procedure_Limited",
    "ProtocolName": "NIH_EPI_2.0iso_TR2_Run10",
    "PulseSequenceDetails": "%CustomerSeq%_inati_nih_epi",
    "ReceiveCoilName": "32Ch_Head_7T",
    "ReconMatrixPE": 96,
    "RepetitionTime": 2,
    "SAR": 0.0812167,
    "ScanningSequence": "EP",
    "SequenceName": "epfid2d1_96",
    "SequenceVariant": "SK",
    "SeriesDescription": "NIH_EPI_2.0iso_TR2_Run10",
    "SeriesNumber": 16,
    "ShimSetting": [
      -120,
      133,
      1277,
      2388,
      -223,
      615,
      308,
      -340
    ],
    "SliceThickness": 2,
    "SliceTiming": [
      1.0025,
      0,
      1.04,
      0.0375,
      1.0775,
      0.075,
      1.115,
      0.11,
      1.1525,
      0.1475,
      1.19,
      0.185,
      1.2275,
      0.2225,
      1.2625,
      0.26,
      1.3,
      0.2975,
      1.3375,
      0.335,
      1.375,
      0.3725,
      1.4125,
      0.4075,
      1.45,
      0.445,
      1.4875,
      0.4825,
      1.525,
      0.52,
      1.56,
      0.5575,
      1.5975,
      0.595,
      1.635,
      0.6325,
      1.6725,
      0.67,
      1.71,
      0.705,
      1.7475,
      0.7425,
      1.785,
      0.78,
      1.8225,
      0.8175,
      1.8575,
      0.855,
      1.895,
      0.8925,
      1.9325,
      0.93,
      1.97,
      0.9675
    ],
    "SoftwareVersions": "syngo_MR_B17",
    "SpacingBetweenSlices": 2,
    "StationName": "FMRIFD7T",
    "TaskName": "FullFovAttentionTask",
    "TotalReadoutTime": 0.0190001,
    "TxRefAmp": 286,
    "dataset": "ds001555",
    "dcmmeta_affine": [
      [
        -2.0,
        4.1020681296188855e-10,
        0.0,
        95.98538208007812
      ],
      [
        4.1020681296188855e-10,
        2.0,
        0.0,
        -72.42303466796875
      ],
      [
        0.0,
        0.0,
        2.0,
        -30.593246459960938
      ],
      [
        0.0,
        0.0,
        0.0,
        1.0
      ]
    ],
    "dcmmeta_reorient_transform": [
      [
        0.0,
        -1.0,
        0.0,
        95.0
      ],
      [
        1.0,
        0.0,
        0.0,
        0.0
      ],
      [
        0.0,
        0.0,
        1.0,
        0.0
      ],
      [
        0.0,
        0.0,
        0.0,
        1.0
      ]
    ],
    "dcmmeta_shape": [
      96,
      96,
      54,
      164
    ],
    "dcmmeta_slice_dim": 2,
    "dcmmeta_version": 0.6,
    "global": {
      "const": {
        "AcquisitionMatrix": [
          0,
          96,
          96,
          0
        ],
        "Allergies": "No Known Allergies",
        "AngioFlag": "N",
        "BitsAllocated": 16,
        "BitsStored": 12,
        "BodyPartExamined": "HEAD",
        "Columns": 768,
        "EchoNumbers": 1,
        "EchoTime": 25.0,
        "EchoTrainLength": 1,
        "FlipAngle": 50.0,
        "HighBit": 11,
        "ImageOrientationPatient": [
          1.0,
          -2.051034e-10,
          0.0,
          2.051034e-10,
          1.0,
          0.0
        ],
        "ImagePositionPatient": [
          -767.98537955166,
          -789.57696326716,
          -30.593246459961
        ],
        "ImageType": [
          "ORIGINAL",
          "PRIMARY",
          "M",
          "ND",
          "ECHO_00",
          "MOSAIC"
        ],
        "ImagedNucleus": "1H",
        "ImagingFrequency": 297.205008,
        "InPlanePhaseEncodingDirection": "ROW",
        "LargestImagePixelValue": 4095,
        "MRAcquisitionType": "2D",
        "MagneticFieldStrength": 6.98,
        "Manufacturer": "SIEMENS",
        "ManufacturerModelName": "Investigational_Device_7T",
        "Modality": "MR",
        "NumberOfAverages": 1.0,
        "NumberOfPhaseEncodingSteps": 94,
        "PercentPhaseFieldOfView": 100.0,
        "PercentSampling": 100.0,
        "PerformedProcedureStepStartTime": "161157.887000",
        "PhotometricInterpretation": "MONOCHROME2",
        "PixelBandwidth": 2003.0,
        "PixelRepresentation": 0,
        "PixelSpacing": [
          2.0,
          2.0
        ],
        "PositionReferenceIndicator": "",
        "ProcedureCodeSequence": [
          {
            "CodeMeaning": "MRI Procedure Limited",
            "CodeValue": "MI01491",
            "CodingSchemeDesignator": "USA Standard",
            "ContextIdentifier": "4000133395"
          }
        ],
        "ProtocolName": "NIH_EPI_2.0iso_TR2_Run10",
        "ReferencedStudySequence": [
          {
            "ReferencedSOPClassUID": "1.2.840.10008.3.1.2.3.1",
            "ReferencedSOPInstanceUID": "1.2.840.113564.9.1.2787814059.53.2.5000099245"
          }
        ],
        "RepetitionTime": 2000.0,
        "RequestedProcedureCodeSequence": [
          {
            "CodeMeaning": "MRI Procedure Limited",
            "CodeValue": "MI01491",
            "CodingSchemeDesignator": "USA Standard",
            "ContextIdentifier": "4000133395"
          }
        ],
        "RequestingService": "NIMH Molecular Imaging Branch",
        "Rows": 768,
        "SAR": 0.08121674495792,
        "SamplesPerPixel": 1,
        "ScanningSequence": "EP",
        "SequenceName": "epfid2d1_96",
        "SequenceVariant": "SK",
        "SeriesDescription": "NIH_EPI_2.0iso_TR2_Run10",
        "SeriesNumber": 16,
        "SliceLocation": -30.593246459961,
        "SliceThickness": 2.0,
        "SmallestImagePixelValue": 0,
        "SoftwareVersions": "syngo MR B17",
        "SpacingBetweenSlices": 2.0,
        "TransmitCoilName": "32Ch_Head_7T",
        "VariableFlipAngleFlag": "N",
        "WindowCenterWidthExplanation": "Algo1",
        "dBdt": 0.0
      },
      "slices": {}
    },
    "modality": "bold",
    "run_id": 13,
    "session_id": "09",
    "subject_id": "003",
    "task_id": "FullFovAttentionTask",
    "time": {
      "samples": {
        "AcquisitionNumber": [
          1,
          2,
          3,
          4,
          5,
          6,
          7,
          8,
          9,
          10,
          11,
          12,
          13,
          14,
          15,
          16,
          17,
          18,
          19,
          20,
          21,
          22,
          23,
          24,
          25,
          26,
          27,
          28,
          29,
          30,
          31,
          32,
          33,
          34,
          35,
          36,
          37,
          38,
          39,
          40,
          41,
          42,
          43,
          44,
          45,
          46,
          47,
          48,
          49,
          50,
          51,
          52,
          53,
          54,
          55,
          56,
          57,
          58,
          59,
          60,
          61,
          62,
          63,
          64,
          65,
          66,
          67,
          68,
          69,
          70,
          71,
          72,
          73,
          74,
          75,
          76,
          77,
          78,
          79,
          80,
          81,
          82,
          83,
          84,
          85,
          86,
          87,
          88,
          89,
          90,
          91,
          92,
          93,
          94,
          95,
          96,
          97,
          98,
          99,
          100,
          101,
          102,
          103,
          104,
          105,
          106,
          107,
          108,
          109,
          110,
          111,
          112,
          113,
          114,
          115,
          116,
          117,
          118,
          119,
          120,
          121,
          122,
          123,
          124,
          125,
          126,
          127,
          128,
          129,
          130,
          131,
          132,
          133,
          134,
          135,
          136,
          137,
          138,
          139,
          140,
          141,
          142,
          143,
          144,
          145,
          146,
          147,
          148,
          149,
          150,
          151,
          152,
          153,
          154,
          155,
          156,
          157,
          158,
          159,
          160,
          161,
          162,
          163,
          164
        ],
        "AcquisitionTime": [
          "173757.032500",
          "173801.050000",
          "173803.057500",
          "173805.065000",
          "173807.072500",
          "173809.082500",
          "173811.090000",
          "173813.097500",
          "173815.105000",
          "173817.115000",
          "173819.122500",
          "173821.130000",
          "173823.137500",
          "173825.145000",
          "173827.155000",
          "173829.162500",
          "173831.170000",
          "173833.177500",
          "173835.185000",
          "173837.195000",
          "173839.202500",
          "173841.210000",
          "173843.217500",
          "173845.227500",
          "173847.235000",
          "173849.242500",
          "173851.250000",
          "173853.257500",
          "173855.267500",
          "173857.275000",
          "173859.282500",
          "173901.290000",
          "173903.297500",
          "173905.307500",
          "173907.315000",
          "173909.322500",
          "173911.330000",
          "173913.337500",
          "173915.347500",
          "173917.355000",
          "173919.362500",
          "173921.370000",
          "173923.380000",
          "173925.387500",
          "173927.395000",
          "173929.402500",
          "173931.410000",
          "173933.420000",
          "173935.427500",
          "173937.435000",
          "173939.442500",
          "173941.450000",
          "173943.460000",
          "173945.467500",
          "173947.475000",
          "173949.482500",
          "173951.492500",
          "173953.500000",
          "173955.507500",
          "173957.515000",
          "173959.522500",
          "174001.532500",
          "174003.540000",
          "174005.547500",
          "174007.555000",
          "174009.562500",
          "174011.572500",
          "174013.580000",
          "174015.587500",
          "174017.595000",
          "174019.605000",
          "174021.612500",
          "174023.620000",
          "174025.627500",
          "174027.635000",
          "174029.645000",
          "174031.652500",
          "174033.660000",
          "174035.667500",
          "174037.675000",
          "174039.685000",
          "174041.692500",
          "174043.700000",
          "174045.707500",
          "174047.715000",
          "174049.725000",
          "174051.732500",
          "174053.740000",
          "174055.747500",
          "174057.757500",
          "174059.765000",
          "174101.772500",
          "174103.780000",
          "174105.787500",
          "174107.797500",
          "174109.805000",
          "174111.812500",
          "174113.820000",
          "174115.827500",
          "174117.837500",
          "174119.845000",
          "174121.852500",
          "174123.860000",
          "174125.870000",
          "174127.877500",
          "174129.885000",
          "174131.892500",
          "174133.900000",
          "174135.910000",
          "174137.917500",
          "174139.925000",
          "174141.932500",
          "174143.940000",
          "174145.950000",
          "174147.957500",
          "174149.965000",
          "174151.972500",
          "174153.982500",
          "174155.990000",
          "174157.997500",
          "174200.005000",
          "174202.012500",
          "174204.022500",
          "174206.030000",
          "174208.037500",
          "174210.045000",
          "174212.052500",
          "174214.062500",
          "174216.070000",
          "174218.077500",
          "174220.085000",
          "174222.092500",
          "174224.102500",
          "174226.110000",
          "174228.117500",
          "174230.125000",
          "174232.135000",
          "174234.142500",
          "174236.150000",
          "174238.157500",
          "174240.165000",
          "174242.175000",
          "174244.182500",
          "174246.190000",
          "174248.197500",
          "174250.205000",
          "174252.215000",
          "174254.222500",
          "174256.230000",
          "174258.237500",
          "174300.247500",
          "174302.255000",
          "174304.262500",
          "174306.270000",
          "174308.277500",
          "174310.287500",
          "174312.295000",
          "174314.302500",
          "174316.310000",
          "174318.317500",
          "174320.327500",
          "174322.335000",
          "174324.342500",
          "174326.350000"
        ],
        "ContentTime": [
          "173846.887000",
          "173846.902000",
          "173846.902000",
          "173846.902000",
          "173846.902000",
          "173846.902000",
          "173846.902000",
          "173846.918000",
          "173846.918000",
          "173846.918000",
          "173846.918000",
          "173846.918000",
          "173846.918000",
          "173846.933000",
          "173846.933000",
          "173846.933000",
          "173846.933000",
          "173846.933000",
          "173846.933000",
          "173846.949000",
          "173846.949000",
          "173846.949000",
          "173846.949000",
          "173926.887000",
          "173926.887000",
          "173926.887000",
          "173926.887000",
          "173926.887000",
          "173926.902000",
          "173926.902000",
          "173926.902000",
          "173926.902000",
          "173926.902000",
          "173926.918000",
          "173926.918000",
          "173926.918000",
          "173926.918000",
          "173926.918000",
          "173926.933000",
          "173926.933000",
          "173926.933000",
          "173926.933000",
          "173926.933000",
          "174006.887000",
          "174006.887000",
          "174006.887000",
          "174006.887000",
          "174006.887000",
          "174006.902000",
          "174006.902000",
          "174006.902000",
          "174006.902000",
          "174006.902000",
          "174006.902000",
          "174006.918000",
          "174006.918000",
          "174006.918000",
          "174006.918000",
          "174006.918000",
          "174006.918000",
          "174006.933000",
          "174006.933000",
          "174006.933000",
          "174046.887000",
          "174046.887000",
          "174046.887000",
          "174046.887000",
          "174046.887000",
          "174046.902000",
          "174046.902000",
          "174046.902000",
          "174046.902000",
          "174046.918000",
          "174046.918000",
          "174046.918000",
          "174046.918000",
          "174046.918000",
          "174046.933000",
          "174046.933000",
          "174046.933000",
          "174046.933000",
          "174046.933000",
          "174046.933000",
          "174126.887000",
          "174126.887000",
          "174126.887000",
          "174126.887000",
          "174126.887000",
          "174126.902000",
          "174126.902000",
          "174126.902000",
          "174126.918000",
          "174126.918000",
          "174126.918000",
          "174126.918000",
          "174126.918000",
          "174126.918000",
          "174126.918000",
          "174126.933000",
          "174126.933000",
          "174126.933000",
          "174126.933000",
          "174126.933000",
          "174206.887000",
          "174206.887000",
          "174206.887000",
          "174206.887000",
          "174206.887000",
          "174206.902000",
          "174206.902000",
          "174206.902000",
          "174206.902000",
          "174206.902000",
          "174206.902000",
          "174206.918000",
          "174206.918000",
          "174206.918000",
          "174206.918000",
          "174206.918000",
          "174206.933000",
          "174206.933000",
          "174206.933000",
          "174206.933000",
          "174246.887000",
          "174246.887000",
          "174246.887000",
          "174246.887000",
          "174246.887000",
          "174246.902000",
          "174246.902000",
          "174246.902000",
          "174246.902000",
          "174246.902000",
          "174246.902000",
          "174246.918000",
          "174246.918000",
          "174246.918000",
          "174246.918000",
          "174246.918000",
          "174246.918000",
          "174246.933000",
          "174246.933000",
          "174246.933000",
          "174306.887000",
          "174306.887000",
          "174306.887000",
          "174306.887000",
          "174306.887000",
          "174306.902000",
          "174306.902000",
          "174306.902000",
          "174306.902000",
          "174306.918000",
          "174327.027000",
          "174327.027000",
          "174327.027000",
          "174327.043000",
          "174327.043000",
          "174327.043000",
          "174327.043000",
          "174327.043000",
          "174327.043000",
          "174327.058000",
          "174327.058000"
        ],
        "InstanceCreationTime": [
          "173846.887000",
          "173846.902000",
          "173846.902000",
          "173846.902000",
          "173846.902000",
          "173846.902000",
          "173846.902000",
          "173846.918000",
          "173846.918000",
          "173846.918000",
          "173846.918000",
          "173846.918000",
          "173846.918000",
          "173846.933000",
          "173846.933000",
          "173846.933000",
          "173846.933000",
          "173846.933000",
          "173846.933000",
          "173846.949000",
          "173846.949000",
          "173846.949000",
          "173846.949000",
          "173926.887000",
          "173926.887000",
          "173926.887000",
          "173926.887000",
          "173926.887000",
          "173926.902000",
          "173926.902000",
          "173926.902000",
          "173926.902000",
          "173926.902000",
          "173926.918000",
          "173926.918000",
          "173926.918000",
          "173926.918000",
          "173926.918000",
          "173926.933000",
          "173926.933000",
          "173926.933000",
          "173926.933000",
          "173926.933000",
          "174006.887000",
          "174006.887000",
          "174006.887000",
          "174006.887000",
          "174006.887000",
          "174006.902000",
          "174006.902000",
          "174006.902000",
          "174006.902000",
          "174006.902000",
          "174006.902000",
          "174006.918000",
          "174006.918000",
          "174006.918000",
          "174006.918000",
          "174006.918000",
          "174006.918000",
          "174006.933000",
          "174006.933000",
          "174006.933000",
          "174046.887000",
          "174046.887000",
          "174046.887000",
          "174046.887000",
          "174046.887000",
          "174046.902000",
          "174046.902000",
          "174046.902000",
          "174046.902000",
          "174046.918000",
          "174046.918000",
          "174046.918000",
          "174046.918000",
          "174046.918000",
          "174046.933000",
          "174046.933000",
          "174046.933000",
          "174046.933000",
          "174046.933000",
          "174046.933000",
          "174126.887000",
          "174126.887000",
          "174126.887000",
          "174126.887000",
          "174126.887000",
          "174126.902000",
          "174126.902000",
          "174126.902000",
          "174126.918000",
          "174126.918000",
          "174126.918000",
          "174126.918000",
          "174126.918000",
          "174126.918000",
          "174126.918000",
          "174126.933000",
          "174126.933000",
          "174126.933000",
          "174126.933000",
          "174126.933000",
          "174206.887000",
          "174206.887000",
          "174206.887000",
          "174206.887000",
          "174206.887000",
          "174206.902000",
          "174206.902000",
          "174206.902000",
          "174206.902000",
          "174206.902000",
          "174206.902000",
          "174206.918000",
          "174206.918000",
          "174206.918000",
          "174206.918000",
          "174206.918000",
          "174206.933000",
          "174206.933000",
          "174206.933000",
          "174206.933000",
          "174246.887000",
          "174246.887000",
          "174246.887000",
          "174246.887000",
          "174246.887000",
          "174246.902000",
          "174246.902000",
          "174246.902000",
          "174246.902000",
          "174246.902000",
          "174246.902000",
          "174246.918000",
          "174246.918000",
          "174246.918000",
          "174246.918000",
          "174246.918000",
          "174246.918000",
          "174246.933000",
          "174246.933000",
          "174246.933000",
          "174306.887000",
          "174306.887000",
          "174306.887000",
          "174306.887000",
          "174306.887000",
          "174306.902000",
          "174306.902000",
          "174306.902000",
          "174306.902000",
          "174306.918000",
          "174327.027000",
          "174327.027000",
          "174327.027000",
          "174327.043000",
          "174327.043000",
          "174327.043000",
          "174327.043000",
          "174327.043000",
          "174327.043000",
          "174327.058000",
          "174327.058000"
        ],
        "InstanceNumber": [
          1,
          2,
          3,
          4,
          5,
          6,
          7,
          8,
          9,
          10,
          11,
          12,
          13,
          14,
          15,
          16,
          17,
          18,
          19,
          20,
          21,
          22,
          23,
          24,
          25,
          26,
          27,
          28,
          29,
          30,
          31,
          32,
          33,
          34,
          35,
          36,
          37,
          38,
          39,
          40,
          41,
          42,
          43,
          44,
          45,
          46,
          47,
          48,
          49,
          50,
          51,
          52,
          53,
          54,
          55,
          56,
          57,
          58,
          59,
          60,
          61,
          62,
          63,
          64,
          65,
          66,
          67,
          68,
          69,
          70,
          71,
          72,
          73,
          74,
          75,
          76,
          77,
          78,
          79,
          80,
          81,
          82,
          83,
          84,
          85,
          86,
          87,
          88,
          89,
          90,
          91,
          92,
          93,
          94,
          95,
          96,
          97,
          98,
          99,
          100,
          101,
          102,
          103,
          104,
          105,
          106,
          107,
          108,
          109,
          110,
          111,
          112,
          113,
          114,
          115,
          116,
          117,
          118,
          119,
          120,
          121,
          122,
          123,
          124,
          125,
          126,
          127,
          128,
          129,
          130,
          131,
          132,
          133,
          134,
          135,
          136,
          137,
          138,
          139,
          140,
          141,
          142,
          143,
          144,
          145,
          146,
          147,
          148,
          149,
          150,
          151,
          152,
          153,
          154,
          155,
          156,
          157,
          158,
          159,
          160,
          161,
          162,
          163,
          164
        ],
        "WindowCenter": [
          981.0,
          980.0,
          980.0,
          978.0,
          977.0,
          978.0,
          979.0,
          978.0,
          978.0,
          978.0,
          979.0,
          979.0,
          979.0,
          978.0,
          978.0,
          979.0,
          979.0,
          978.0,
          978.0,
          978.0,
          979.0,
          979.0,
          979.0,
          978.0,
          979.0,
          979.0,
          979.0,
          979.0,
          979.0,
          978.0,
          979.0,
          981.0,
          979.0,
          978.0,
          979.0,
          978.0,
          978.0,
          979.0,
          978.0,
          977.0,
          978.0,
          978.0,
          979.0,
          979.0,
          979.0,
          978.0,
          978.0,
          979.0,
          979.0,
          979.0,
          979.0,
          980.0,
          980.0,
          980.0,
          978.0,
          978.0,
          978.0,
          977.0,
          978.0,
          978.0,
          978.0,
          977.0,
          978.0,
          978.0,
          978.0,
          978.0,
          978.0,
          978.0,
          978.0,
          977.0,
          977.0,
          978.0,
          977.0,
          978.0,
          977.0,
          977.0,
          978.0,
          978.0,
          978.0,
          978.0,
          979.0,
          979.0,
          979.0,
          978.0,
          978.0,
          978.0,
          978.0,
          978.0,
          977.0,
          978.0,
          977.0,
          976.0,
          977.0,
          977.0,
          977.0,
          977.0,
          977.0,
          978.0,
          978.0,
          979.0,
          979.0,
          979.0,
          978.0,
          977.0,
          977.0,
          978.0,
          978.0,
          978.0,
          978.0,
          979.0,
          978.0,
          978.0,
          978.0,
          979.0,
          978.0,
          977.0,
          977.0,
          978.0,
          977.0,
          977.0,
          977.0,
          977.0,
          977.0,
          977.0,
          977.0,
          977.0,
          978.0,
          978.0,
          979.0,
          979.0,
          979.0,
          979.0,
          978.0,
          978.0,
          978.0,
          979.0,
          978.0,
          979.0,
          978.0,
          978.0,
          977.0,
          976.0,
          977.0,
          977.0,
          978.0,
          978.0,
          979.0,
          977.0,
          978.0,
          978.0,
          978.0,
          977.0,
          977.0,
          977.0,
          977.0,
          978.0,
          979.0,
          977.0,
          977.0,
          977.0,
          978.0,
          980.0,
          984.0,
          985.0
        ],
        "WindowWidth": [
          2587.0,
          2592.0,
          2587.0,
          2575.0,
          2570.0,
          2576.0,
          2579.0,
          2578.0,
          2575.0,
          2580.0,
          2582.0,
          2583.0,
          2582.0,
          2581.0,
          2590.0,
          2590.0,
          2587.0,
          2583.0,
          2579.0,
          2580.0,
          2581.0,
          2581.0,
          2581.0,
          2580.0,
          2580.0,
          2581.0,
          2581.0,
          2578.0,
          2577.0,
          2579.0,
          2581.0,
          2582.0,
          2581.0,
          2580.0,
          2581.0,
          2581.0,
          2582.0,
          2582.0,
          2585.0,
          2584.0,
          2583.0,
          2583.0,
          2587.0,
          2588.0,
          2584.0,
          2583.0,
          2584.0,
          2584.0,
          2584.0,
          2587.0,
          2594.0,
          2593.0,
          2587.0,
          2582.0,
          2581.0,
          2580.0,
          2576.0,
          2575.0,
          2577.0,
          2577.0,
          2577.0,
          2578.0,
          2583.0,
          2580.0,
          2574.0,
          2576.0,
          2581.0,
          2583.0,
          2580.0,
          2577.0,
          2579.0,
          2583.0,
          2582.0,
          2579.0,
          2579.0,
          2581.0,
          2584.0,
          2581.0,
          2580.0,
          2579.0,
          2580.0,
          2584.0,
          2584.0,
          2581.0,
          2577.0,
          2578.0,
          2577.0,
          2577.0,
          2575.0,
          2573.0,
          2576.0,
          2577.0,
          2577.0,
          2578.0,
          2578.0,
          2577.0,
          2582.0,
          2584.0,
          2584.0,
          2590.0,
          2599.0,
