{
  "aor": 0.003459573170731707,
  "aqi": 0.007717691158536585,
  "bids_meta": {
    "AcquisitionMatrixPE": 96,
    "AcquisitionNumber": 1,
    "AcquisitionTime": "18:24:32.690000",
    "BandwidthPerPixelPhaseEncode": 52.083,
    "BaseResolution": 96,
    "BodyPartExamined": "HEAD",
    "ConversionSoftware": "dcm2niix",
    "ConversionSoftwareVersion": "v1.0.20180622 GCC6.3.0",
    "DerivedVendorReportedEchoSpacing": 0.000600004,
    "DeviceSerialNumber": "18926",
    "DwellTime": 2.6e-06,
    "EchoTime": 0.025,
    "EffectiveEchoSpacing": 0.000200001,
    "FlipAngle": 50,
    "ImageOrientationPatientDICOM": [
      0.999992,
      0.00100659,
      0.00397877,
      1.98401e-10,
      0.969457,
      -0.245262
    ],
    "ImageType": [
      "ORIGINAL",
      "PRIMARY",
      "M",
      "ND",
      "ECHO",
      "00",
      "MOSAIC"
    ],
    "InPlanePhaseEncodingDirectionDICOM": "ROW",
    "InstitutionName": "NIMH",
    "InstitutionalDepartmentName": "Department",
    "MRAcquisitionType": "2D",
    "MagneticFieldStrength": 6.98,
    "Manufacturer": "Siemens",
    "ManufacturersModelName": "Investigational_Device_7T",
    "Modality": "MR",
    "ParallelReductionFactorInPlane": 3,
    "PartialFourier": 1,
    "PatientPosition": "HFS",
    "PercentPhaseFOV": 100,
    "PhaseEncodingDirection": "i",
    "PhaseEncodingSteps": 94,
    "PhaseResolution": 1,
    "PixelBandwidth": 2003,
    "ProcedureStepDescription": "MRI_Procedure_Limited",
    "ProtocolName": "NIH_EPI_2.0iso_TR2_Run06",
    "PulseSequenceDetails": "%CustomerSeq%_inati_nih_epi",
    "ReceiveCoilName": "32Ch_Head_7T",
    "ReconMatrixPE": 96,
    "RepetitionTime": 2,
    "SAR": 0.0804994,
    "ScanningSequence": "EP",
    "SequenceName": "epfid2d1_96",
    "SequenceVariant": "SK",
    "SeriesDescription": "NIH_EPI_2.0iso_TR2_Run06",
    "SeriesNumber": 11,
    "ShimSetting": [
      -39,
      169,
      894,
      1298,
      -62,
      494,
      -26,
      -417
    ],
    "SliceThickness": 2,
    "SliceTiming": [
      1.005,
      0,
      1.0425,
      0.0375,
      1.0775,
      0.075,
      1.115,
      0.1125,
      1.1525,
      0.15,
      1.19,
      0.185,
      1.2275,
      0.2225,
      1.265,
      0.26,
      1.3025,
      0.2975,
      1.3375,
      0.335,
      1.375,
      0.3725,
      1.4125,
      0.41,
      1.45,
      0.4475,
      1.4875,
      0.4825,
      1.525,
      0.52,
      1.5625,
      0.5575,
      1.6,
      0.595,
      1.635,
      0.6325,
      1.6725,
      0.67,
      1.71,
      0.7075,
      1.7475,
      0.745,
      1.785,
      0.78,
      1.8225,
      0.8175,
      1.86,
      0.855,
      1.8975,
      0.8925,
      1.9325,
      0.93,
      1.97,
      0.9675
    ],
    "SoftwareVersions": "syngo_MR_B17",
    "SpacingBetweenSlices": 2,
    "StationName": "FMRIFD7T",
    "TaskName": "HalfFovNoTask",
    "TotalReadoutTime": 0.0190001,
    "TxRefAmp": 322,
    "dataset": "ds001555",
    "dcmmeta_affine": [
      [
        -1.9999831914901733,
        3.9680239649619864e-10,
        0.008208253420889378,
        95.76705169677734
      ],
      [
        -0.0020131703931838274,
        1.9389138221740723,
        -0.4905194342136383,
        -52.40839767456055
      ],
      [
        0.007957547903060913,
        0.4905235469341278,
        1.9388974905014038,
        -48.362403869628906
      ],
      [
        0.0,
        0.0,
        0.0,
        1.0
      ]
    ],
    "dcmmeta_reorient_transform": [
      [
        0.0,
        -1.0,
        0.0,
        95.0
      ],
      [
        1.0,
        0.0,
        0.0,
        0.0
      ],
      [
        0.0,
        0.0,
        1.0,
        0.0
      ],
      [
        0.0,
        0.0,
        0.0,
        1.0
      ]
    ],
    "dcmmeta_shape": [
      96,
      96,
      54,
      164
    ],
    "dcmmeta_slice_dim": 2,
    "dcmmeta_version": 0.6,
    "global": {
      "const": {
        "AcquisitionMatrix": [
          0,
          96,
          96,
          0
        ],
        "Allergies": "No Known Allergies",
        "AngioFlag": "N",
        "BitsAllocated": 16,
        "BitsStored": 12,
        "BodyPartExamined": "HEAD",
        "Columns": 768,
        "EchoNumbers": 1,
        "EchoTime": 25.0,
        "EchoTrainLength": 1,
        "FlipAngle": 50.0,
        "HighBit": 11,
        "ImageOrientationPatient": [
          0.99999157803706,
          0.00100658515696,
          0.00397877384048,
          1.984012e-10,
          0.96945689128577,
          -0.2452617702344
        ],
        "ImagePositionPatient": [
          -767.76139276565,
          -783.93986653399,
          160.37950466745
        ],
        "ImageType": [
          "ORIGINAL",
          "PRIMARY",
          "M",
          "ND",
          "ECHO_00",
          "MOSAIC"
        ],
        "ImagedNucleus": "1H",
        "ImagingFrequency": 297.204949,
        "InPlanePhaseEncodingDirection": "ROW",
        "LargestImagePixelValue": 4095,
        "MRAcquisitionType": "2D",
        "MagneticFieldStrength": 6.98,
        "Manufacturer": "SIEMENS",
        "ManufacturerModelName": "Investigational_Device_7T",
        "Modality": "MR",
        "NumberOfAverages": 1.0,
        "NumberOfPhaseEncodingSteps": 94,
        "PercentPhaseFieldOfView": 100.0,
        "PercentSampling": 100.0,
        "PerformedProcedureStepStartTime": "172727.468000",
        "PhotometricInterpretation": "MONOCHROME2",
        "PixelBandwidth": 2003.0,
        "PixelRepresentation": 0,
        "PixelSpacing": [
          2.0,
          2.0
        ],
        "PositionReferenceIndicator": "",
        "ProcedureCodeSequence": [
          {
            "CodeMeaning": "MRI Procedure Limited",
            "CodeValue": "MI01491",
            "CodingSchemeDesignator": "USA Standard",
            "ContextIdentifier": "4000120229"
          }
        ],
        "ProtocolName": "NIH_EPI_2.0iso_TR2_Run06",
        "ReferencedStudySequence": [
          {
            "ReferencedSOPClassUID": "1.2.840.10008.3.1.2.3.1",
            "ReferencedSOPInstanceUID": "1.2.840.113564.9.1.2723958737.61.2.5000086040"
          }
        ],
        "RepetitionTime": 2000.0,
        "RequestedProcedureCodeSequence": [
          {
            "CodeMeaning": "MRI Procedure Limited",
            "CodeValue": "MI01491",
            "CodingSchemeDesignator": "USA Standard",
            "ContextIdentifier": "4000120229"
          }
        ],
        "RequestingService": "NIHM Molecular Imaging Branch",
        "Rows": 768,
        "SAR": 0.080499376312,
        "SamplesPerPixel": 1,
        "ScanningSequence": "EP",
        "SequenceName": "epfid2d1_96",
        "SequenceVariant": "SK",
        "SeriesDescription": "NIH_EPI_2.0iso_TR2_Run06",
        "SeriesNumber": 11,
        "SliceLocation": -33.63816362769,
        "SliceThickness": 2.0,
        "SmallestImagePixelValue": 0,
        "SoftwareVersions": "syngo MR B17",
        "SpacingBetweenSlices": 2.0000000574333,
        "TransmitCoilName": "32Ch_Head_7T",
        "VariableFlipAngleFlag": "N",
        "WindowCenterWidthExplanation": "Algo1",
        "dBdt": 0.0
      },
      "slices": {}
    },
    "modality": "bold",
    "run_id": 8,
    "session_id": "09",
    "subject_id": "001",
    "task_id": "HalfFovNoTask",
    "time": {
      "samples": {
        "AcquisitionNumber": [
          1,
          2,
          3,
          4,
          5,
          6,
          7,
          8,
          9,
          10,
          11,
          12,
          13,
          14,
          15,
          16,
          17,
          18,
          19,
          20,
          21,
          22,
          23,
          24,
          25,
          26,
          27,
          28,
          29,
          30,
          31,
          32,
          33,
          34,
          35,
          36,
          37,
          38,
          39,
          40,
          41,
          42,
          43,
          44,
          45,
          46,
          47,
          48,
          49,
          50,
          51,
          52,
          53,
          54,
          55,
          56,
          57,
          58,
          59,
          60,
          61,
          62,
          63,
          64,
          65,
          66,
          67,
          68,
          69,
          70,
          71,
          72,
          73,
          74,
          75,
          76,
          77,
          78,
          79,
          80,
          81,
          82,
          83,
          84,
          85,
          86,
          87,
          88,
          89,
          90,
          91,
          92,
          93,
          94,
          95,
          96,
          97,
          98,
          99,
          100,
          101,
          102,
          103,
          104,
          105,
          106,
          107,
          108,
          109,
          110,
          111,
          112,
          113,
          114,
          115,
          116,
          117,
          118,
          119,
          120,
          121,
          122,
          123,
          124,
          125,
          126,
          127,
          128,
          129,
          130,
          131,
          132,
          133,
          134,
          135,
          136,
          137,
          138,
          139,
          140,
          141,
          142,
          143,
          144,
          145,
          146,
          147,
          148,
          149,
          150,
          151,
          152,
          153,
          154,
          155,
          156,
          157,
          158,
          159,
          160,
          161,
          162,
          163,
          164
        ],
        "AcquisitionTime": [
          "182432.690000",
          "182436.705000",
          "182438.712500",
          "182440.722500",
          "182442.730000",
          "182444.737500",
          "182446.745000",
          "182448.752500",
          "182450.762500",
          "182452.770000",
          "182454.777500",
          "182456.785000",
          "182458.792500",
          "182500.802500",
          "182502.810000",
          "182504.817500",
          "182506.825000",
          "182508.832500",
          "182510.842500",
          "182512.850000",
          "182514.857500",
          "182516.865000",
          "182518.875000",
          "182520.882500",
          "182522.890000",
          "182524.897500",
          "182526.905000",
          "182528.915000",
          "182530.922500",
          "182532.930000",
          "182534.937500",
          "182536.945000",
          "182538.955000",
          "182540.962500",
          "182542.970000",
          "182544.977500",
          "182546.987500",
          "182548.995000",
          "182551.002500",
          "182553.010000",
          "182555.017500",
          "182557.027500",
          "182559.035000",
          "182601.042500",
          "182603.050000",
          "182605.057500",
          "182607.067500",
          "182609.075000",
          "182611.082500",
          "182613.090000",
          "182615.100000",
          "182617.107500",
          "182619.115000",
          "182621.122500",
          "182623.130000",
          "182625.140000",
          "182627.147500",
          "182629.155000",
          "182631.162500",
          "182633.170000",
          "182635.180000",
          "182637.187500",
          "182639.195000",
          "182641.202500",
          "182643.210000",
          "182645.220000",
          "182647.227500",
          "182649.235000",
          "182651.242500",
          "182653.252500",
          "182655.260000",
          "182657.267500",
          "182659.275000",
          "182701.282500",
          "182703.292500",
          "182705.300000",
          "182707.307500",
          "182709.315000",
          "182711.322500",
          "182713.332500",
          "182715.340000",
          "182717.347500",
          "182719.355000",
          "182721.365000",
          "182723.372500",
          "182725.380000",
          "182727.387500",
          "182729.395000",
          "182731.405000",
          "182733.412500",
          "182735.420000",
          "182737.427500",
          "182739.435000",
          "182741.445000",
          "182743.452500",
          "182745.460000",
          "182747.467500",
          "182749.477500",
          "182751.485000",
          "182753.492500",
          "182755.500000",
          "182757.507500",
          "182759.517500",
          "182801.525000",
          "182803.532500",
          "182805.540000",
          "182807.547500",
          "182809.557500",
          "182811.565000",
          "182813.572500",
          "182815.580000",
          "182817.587500",
          "182819.597500",
          "182821.605000",
          "182823.612500",
          "182825.620000",
          "182827.630000",
          "182829.637500",
          "182831.645000",
          "182833.652500",
          "182835.660000",
          "182837.670000",
          "182839.677500",
          "182841.685000",
          "182843.692500",
          "182845.700000",
          "182847.710000",
          "182849.717500",
          "182851.725000",
          "182853.732500",
          "182855.742500",
          "182857.750000",
          "182859.757500",
          "182901.765000",
          "182903.772500",
          "182905.782500",
          "182907.790000",
          "182909.797500",
          "182911.805000",
          "182913.812500",
          "182915.822500",
          "182917.830000",
          "182919.837500",
          "182921.845000",
          "182923.855000",
          "182925.862500",
          "182927.870000",
          "182929.877500",
          "182931.885000",
          "182933.895000",
          "182935.902500",
          "182937.910000",
          "182939.917500",
          "182941.925000",
          "182943.935000",
          "182945.942500",
          "182947.950000",
          "182949.957500",
          "182951.965000",
          "182953.975000",
          "182955.982500",
          "182957.990000",
          "182959.997500",
          "183002.007500"
        ],
        "ContentTime": [
          "182525.078000",
          "182525.078000",
          "182525.078000",
          "182525.078000",
          "182525.078000",
          "182525.078000",
          "182525.093000",
          "182525.093000",
          "182525.093000",
          "182525.093000",
          "182525.093000",
          "182525.093000",
          "182525.093000",
          "182525.109000",
          "182525.109000",
          "182525.109000",
          "182525.109000",
          "182525.109000",
          "182525.109000",
          "182525.125000",
          "182525.125000",
          "182525.125000",
          "182525.125000",
          "182525.140000",
          "182525.140000",
          "182605.062000",
          "182605.062000",
          "182605.062000",
          "182605.062000",
          "182605.078000",
          "182605.078000",
          "182605.078000",
          "182605.078000",
          "182605.078000",
          "182605.093000",
          "182605.093000",
          "182605.093000",
          "182605.093000",
          "182605.093000",
          "182605.093000",
          "182605.109000",
          "182605.109000",
          "182605.109000",
          "182605.109000",
          "182605.109000",
          "182645.062000",
          "182645.062000",
          "182645.062000",
          "182645.062000",
          "182645.062000",
          "182645.078000",
          "182645.078000",
          "182645.078000",
          "182645.078000",
          "182645.078000",
          "182645.078000",
          "182645.093000",
          "182645.093000",
          "182645.093000",
          "182645.093000",
          "182645.093000",
          "182645.109000",
          "182645.109000",
          "182645.109000",
          "182645.109000",
          "182725.062000",
          "182725.062000",
          "182725.062000",
          "182725.078000",
          "182725.078000",
          "182725.078000",
          "182725.078000",
          "182725.078000",
          "182725.078000",
          "182725.078000",
          "182725.093000",
          "182725.093000",
          "182725.093000",
          "182725.093000",
          "182725.093000",
          "182725.093000",
          "182725.109000",
          "182725.109000",
          "182725.109000",
          "182725.125000",
          "182805.062000",
          "182805.062000",
          "182805.062000",
          "182805.062000",
          "182805.078000",
          "182805.078000",
          "182805.078000",
          "182805.078000",
          "182805.078000",
          "182805.078000",
          "182805.093000",
          "182805.093000",
          "182805.093000",
          "182805.093000",
          "182805.093000",
          "182805.093000",
          "182805.109000",
          "182805.109000",
          "182805.109000",
          "182805.109000",
          "182845.062000",
          "182845.062000",
          "182845.062000",
          "182845.062000",
          "182845.078000",
          "182845.078000",
          "182845.078000",
          "182845.078000",
          "182845.078000",
          "182845.078000",
          "182845.078000",
          "182845.093000",
          "182845.093000",
          "182845.093000",
          "182845.109000",
          "182845.125000",
          "182845.125000",
          "182845.125000",
          "182845.125000",
          "182845.140000",
          "182925.062000",
          "182925.062000",
          "182925.062000",
          "182925.062000",
          "182925.078000",
          "182925.078000",
          "182925.078000",
          "182925.078000",
          "182925.078000",
          "182925.078000",
          "182925.078000",
          "182925.093000",
          "182925.093000",
          "182925.093000",
          "182925.093000",
          "182925.093000",
          "182925.093000",
          "182925.109000",
          "182925.109000",
          "182925.109000",
          "183002.656000",
          "183002.656000",
          "183002.656000",
          "183002.656000",
          "183002.656000",
          "183002.671000",
          "183002.671000",
          "183002.671000",
          "183002.671000",
          "183002.671000",
          "183002.671000",
          "183002.687000",
          "183002.687000",
          "183002.687000",
          "183002.687000",
          "183002.687000",
          "183002.687000",
          "183002.703000",
          "183002.703000"
        ],
        "InstanceCreationTime": [
          "182525.078000",
          "182525.078000",
          "182525.078000",
          "182525.078000",
          "182525.078000",
          "182525.078000",
          "182525.093000",
          "182525.093000",
          "182525.093000",
          "182525.093000",
          "182525.093000",
          "182525.093000",
          "182525.093000",
          "182525.109000",
          "182525.109000",
          "182525.109000",
          "182525.109000",
          "182525.109000",
          "182525.109000",
          "182525.125000",
          "182525.125000",
          "182525.125000",
          "182525.125000",
          "182525.140000",
          "182525.140000",
          "182605.062000",
          "182605.062000",
          "182605.062000",
          "182605.062000",
          "182605.078000",
          "182605.078000",
          "182605.078000",
          "182605.078000",
          "182605.078000",
          "182605.093000",
          "182605.093000",
          "182605.093000",
          "182605.093000",
          "182605.093000",
          "182605.093000",
          "182605.109000",
          "182605.109000",
          "182605.109000",
          "182605.109000",
          "182605.109000",
          "182645.062000",
          "182645.062000",
          "182645.062000",
          "182645.062000",
          "182645.062000",
          "182645.078000",
          "182645.078000",
          "182645.078000",
          "182645.078000",
          "182645.078000",
          "182645.078000",
          "182645.093000",
          "182645.093000",
          "182645.093000",
          "182645.093000",
          "182645.093000",
          "182645.109000",
          "182645.109000",
          "182645.109000",
          "182645.109000",
          "182725.062000",
          "182725.062000",
          "182725.062000",
          "182725.078000",
          "182725.078000",
          "182725.078000",
          "182725.078000",
          "182725.078000",
          "182725.078000",
          "182725.078000",
          "182725.093000",
          "182725.093000",
          "182725.093000",
          "182725.093000",
          "182725.093000",
          "182725.093000",
          "182725.109000",
          "182725.109000",
          "182725.109000",
          "182725.125000",
          "182805.062000",
          "182805.062000",
          "182805.062000",
          "182805.062000",
          "182805.078000",
          "182805.078000",
          "182805.078000",
          "182805.078000",
          "182805.078000",
          "182805.078000",
          "182805.093000",
          "182805.093000",
          "182805.093000",
          "182805.093000",
          "182805.093000",
          "182805.093000",
          "182805.109000",
          "182805.109000",
          "182805.109000",
          "182805.109000",
          "182845.062000",
          "182845.062000",
          "182845.062000",
          "182845.062000",
          "182845.078000",
          "182845.078000",
          "182845.078000",
          "182845.078000",
          "182845.078000",
          "182845.078000",
          "182845.078000",
          "182845.093000",
          "182845.093000",
          "182845.093000",
          "182845.109000",
          "182845.125000",
          "182845.125000",
          "182845.125000",
          "182845.125000",
          "182845.140000",
          "182925.062000",
          "182925.062000",
          "182925.062000",
          "182925.062000",
          "182925.078000",
          "182925.078000",
          "182925.078000",
          "182925.078000",
          "182925.078000",
          "182925.078000",
          "182925.078000",
          "182925.093000",
          "182925.093000",
          "182925.093000",
          "182925.093000",
          "182925.093000",
          "182925.093000",
          "182925.109000",
          "182925.109000",
          "182925.109000",
          "183002.656000",
          "183002.656000",
          "183002.656000",
          "183002.656000",
          "183002.656000",
          "183002.671000",
          "183002.671000",
          "183002.671000",
          "183002.671000",
          "183002.671000",
          "183002.671000",
          "183002.687000",
          "183002.687000",
          "183002.687000",
          "183002.687000",
          "183002.687000",
          "183002.687000",
          "183002.703000",
          "183002.703000"
        ],
        "InstanceNumber": [
          1,
          2,
          3,
          4,
          5,
          6,
          7,
          8,
          9,
          10,
          11,
          12,
          13,
          14,
          15,
          16,
          17,
          18,
          19,
          20,
          21,
          22,
          23,
          24,
          25,
          26,
          27,
          28,
          29,
          30,
          31,
          32,
          33,
          34,
          35,
          36,
          37,
          38,
          39,
          40,
          41,
          42,
          43,
          44,
          45,
          46,
          47,
          48,
          49,
          50,
          51,
          52,
          53,
          54,
          55,
          56,
          57,
          58,
          59,
          60,
          61,
          62,
          63,
          64,
          65,
          66,
          67,
          68,
          69,
          70,
          71,
          72,
          73,
          74,
          75,
          76,
          77,
          78,
          79,
          80,
          81,
          82,
          83,
          84,
          85,
          86,
          87,
          88,
          89,
          90,
          91,
          92,
          93,
          94,
          95,
          96,
          97,
          98,
          99,
          100,
          101,
          102,
          103,
          104,
          105,
          106,
          107,
          108,
          109,
          110,
          111,
          112,
          113,
          114,
          115,
          116,
          117,
          118,
          119,
          120,
          121,
          122,
          123,
          124,
          125,
          126,
          127,
          128,
          129,
          130,
          131,
          132,
          133,
          134,
          135,
          136,
          137,
          138,
          139,
          140,
          141,
          142,
          143,
          144,
          145,
          146,
          147,
          148,
          149,
          150,
          151,
          152,
          153,
          154,
          155,
          156,
          157,
          158,
          159,
          160,
          161,
          162,
          163,
          164
        ],
        "WindowCenter": [
          1240.0,
          1239.0,
          1240.0,
          1240.0,
          1238.0,
          1236.0,
          1235.0,
          1235.0,
          1237.0,
          1236.0,
          1236.0,
          1236.0,
          1236.0,
          1235.0,
          1236.0,
          1236.0,
          1238.0,
          1239.0,
          1237.0,
          1235.0,
          1232.0,
          1231.0,
          1234.0,
          1236.0,
          1237.0,
          1236.0,
          1235.0,
          1235.0,
          1234.0,
          1236.0,
          1238.0,
          1237.0,
          1236.0,
          1236.0,
          1236.0,
          1237.0,
          1236.0,
          1236.0,
          1236.0,
          1236.0,
          1235.0,
          1234.0,
          1233.0,
          1233.0,
          1234.0,
          1234.0,
          1236.0,
          1237.0,
          1238.0,
          1238.0,
          1237.0,
          1236.0,
          1235.0,
          1238.0,
          1239.0,
          1238.0,
          1236.0,
          1235.0,
          1236.0,
          1234.0,
          1234.0,
          1234.0,
          1235.0,
          1238.0,
          1236.0,
          1233.0,
          1233.0,
          1233.0,
          1234.0,
          1233.0,
          1232.0,
          1233.0,
          1232.0,
          1232.0,
          1233.0,
          1234.0,
          1234.0,
          1236.0,
          1235.0,
          1236.0,
          1235.0,
          1233.0,
          1232.0,
          1233.0,
          1235.0,
          1233.0,
          1233.0,
          1234.0,
          1237.0,
          1239.0,
          1237.0,
          1232.0,
          1231.0,
          1231.0,
          1233.0,
          1233.0,
          1235.0,
          1235.0,
          1237.0,
          1235.0,
          1234.0,
          1234.0,
          1234.0,
          1235.0,
          1236.0,
          1238.0,
          1237.0,
          1238.0,
          1236.0,
          1235.0,
          1233.0,
          1234.0,
          1236.0,
          1237.0,
          1235.0,
          1234.0,
          1232.0,
          1232.0,
          1231.0,
          1232.0,
          1232.0,
          1231.0,
          1232.0,
          1233.0,
          1235.0,
          1235.0,
          1233.0,
          1232.0,
          1232.0,
          1234.0,
          1234.0,
          1233.0,
          1232.0,
          1232.0,
          1232.0,
          1232.0,
          1231.0,
          1233.0,
          1234.0,
          1233.0,
          1230.0,
          1228.0,
          1228.0,
          1229.0,
          1231.0,
          1232.0,
          1231.0,
          1231.0,
          1231.0,
          1231.0,
          1231.0,
          1233.0,
          1232.0,
          1233.0,
          1235.0,
          1235.0,
          1234.0,
          1233.0,
          1232.0,
          1232.0,
          1233.0,
          1235.0,
          1235.0,
          1237.0
        ],
        "WindowWidth": [
          2960.0,
          2960.0,
          2961.0,
          2960.0,
          2953.0,
          2950.0,
          2949.0,
          2950.0,
          2951.0,
          2950.0,
          2951.0,
          2952.0,
          2948.0,
          2947.0,
          2950.0,
          2951.0,
          2959.0,
          2963.0,
          2956.0,
          2945.0,
          2941.0,
          2940.0,
          2949.0,
          2954.0,
          2952.0,
          2948.0,
          2947.0,
          2947.0,
          2945.0,
          2949.0,
          2956.0,
          2953.0,
          2950.0,
          2950.0,
          2950.0,
          2950.0,
          2947.0,
          2947.0,
          2949.0,
          2948.0,
          2945.0,
          2943.0,
          2939.0,
          2940.0,
          2942.0,
          2944.0,
          2948.0,
          2952.0,
          2954.0,
          2955.0,
          2952.0,
          2950.0,
          2950.0,
          2954.0,
          2959.0,
          2955.0,
          2952.0,
          2951.0,
          2951.0,
          2946.0,
          2943.0,
          2947.0,
          2948.0,
          2952.0,
          2951.0,
          2944.0,
          2944.0,
          2948.0,
          2951.0,
          2946.0,
          2944.0,
          2944.0,
          2944.0,
          2943.0,
          2944.0,
          2946.0,
          2946.0,
          2949.0,
          2952.0,
          2952.0,
          2948.0,
          2940.0,
