{
  "aor": 0.006652682926829269,
  "aqi": 0.006597590365853658,
  "bids_meta": {
    "AcquisitionMatrixPE": 96,
    "AcquisitionNumber": 1,
    "AcquisitionTime": "19:05:5.320000",
    "BandwidthPerPixelPhaseEncode": 52.083,
    "BaseResolution": 96,
    "BodyPartExamined": "HEAD",
    "ConversionSoftware": "dcm2niix",
    "ConversionSoftwareVersion": "v1.0.20180622 GCC6.3.0",
    "DerivedVendorReportedEchoSpacing": 0.000600004,
    "DeviceSerialNumber": "18926",
    "DwellTime": 2.6e-06,
    "EchoTime": 0.025,
    "EffectiveEchoSpacing": 0.000200001,
    "FlipAngle": 50,
    "ImageOrientationPatientDICOM": [
      0.999992,
      0.00100659,
      0.00397877,
      1.98401e-10,
      0.969457,
      -0.245262
    ],
    "ImageType": [
      "ORIGINAL",
      "PRIMARY",
      "M",
      "ND",
      "ECHO",
      "00",
      "MOSAIC"
    ],
    "InPlanePhaseEncodingDirectionDICOM": "ROW",
    "InstitutionName": "NIMH",
    "InstitutionalDepartmentName": "Department",
    "MRAcquisitionType": "2D",
    "MagneticFieldStrength": 6.98,
    "Manufacturer": "Siemens",
    "ManufacturersModelName": "Investigational_Device_7T",
    "Modality": "MR",
    "ParallelReductionFactorInPlane": 3,
    "PartialFourier": 1,
    "PatientPosition": "HFS",
    "PercentPhaseFOV": 100,
    "PhaseEncodingDirection": "i",
    "PhaseEncodingSteps": 94,
    "PhaseResolution": 1,
    "PixelBandwidth": 2003,
    "ProcedureStepDescription": "MRI_Procedure_Limited",
    "ProtocolName": "NIH_EPI_2.0iso_TR2_Run12",
    "PulseSequenceDetails": "%CustomerSeq%_inati_nih_epi",
    "ReceiveCoilName": "32Ch_Head_7T",
    "ReconMatrixPE": 96,
    "RepetitionTime": 2,
    "SAR": 0.0804994,
    "ScanningSequence": "EP",
    "SequenceName": "epfid2d1_96",
    "SequenceVariant": "SK",
    "SeriesDescription": "NIH_EPI_2.0iso_TR2_Run12",
    "SeriesNumber": 17,
    "ShimSetting": [
      -39,
      169,
      894,
      1298,
      -62,
      494,
      -26,
      -417
    ],
    "SliceThickness": 2,
    "SliceTiming": [
      1.0025,
      0,
      1.04,
      0.0375,
      1.0775,
      0.075,
      1.115,
      0.11,
      1.1525,
      0.1475,
      1.19,
      0.185,
      1.2275,
      0.2225,
      1.2625,
      0.26,
      1.3,
      0.2975,
      1.3375,
      0.335,
      1.375,
      0.3725,
      1.4125,
      0.4075,
      1.45,
      0.445,
      1.4875,
      0.4825,
      1.525,
      0.52,
      1.56,
      0.5575,
      1.5975,
      0.595,
      1.635,
      0.6325,
      1.6725,
      0.67,
      1.71,
      0.705,
      1.7475,
      0.7425,
      1.785,
      0.78,
      1.8225,
      0.8175,
      1.8575,
      0.855,
      1.895,
      0.8925,
      1.9325,
      0.93,
      1.97,
      0.965
    ],
    "SoftwareVersions": "syngo_MR_B17",
    "SpacingBetweenSlices": 2,
    "StationName": "FMRIFD7T",
    "TaskName": "HalfFovNoTask",
    "TotalReadoutTime": 0.0190001,
    "TxRefAmp": 322,
    "dataset": "ds001555",
    "dcmmeta_affine": [
      [
        -1.9999831914901733,
        3.9680239649619864e-10,
        0.008208253420889378,
        95.76705169677734
      ],
      [
        -0.0020131703931838274,
        1.9389138221740723,
        -0.4905194342136383,
        -52.40839767456055
      ],
      [
        0.007957547903060913,
        0.4905235469341278,
        1.9388974905014038,
        -48.362403869628906
      ],
      [
        0.0,
        0.0,
        0.0,
        1.0
      ]
    ],
    "dcmmeta_reorient_transform": [
      [
        0.0,
        -1.0,
        0.0,
        95.0
      ],
      [
        1.0,
        0.0,
        0.0,
        0.0
      ],
      [
        0.0,
        0.0,
        1.0,
        0.0
      ],
      [
        0.0,
        0.0,
        0.0,
        1.0
      ]
    ],
    "dcmmeta_shape": [
      96,
      96,
      54,
      164
    ],
    "dcmmeta_slice_dim": 2,
    "dcmmeta_version": 0.6,
    "global": {
      "const": {
        "AcquisitionMatrix": [
          0,
          96,
          96,
          0
        ],
        "Allergies": "No Known Allergies",
        "AngioFlag": "N",
        "BitsAllocated": 16,
        "BitsStored": 12,
        "BodyPartExamined": "HEAD",
        "Columns": 768,
        "EchoNumbers": 1,
        "EchoTime": 25.0,
        "EchoTrainLength": 1,
        "FlipAngle": 50.0,
        "HighBit": 11,
        "ImageOrientationPatient": [
          0.99999157803706,
          0.00100658515696,
          0.00397877384048,
          1.984012e-10,
          0.96945689128577,
          -0.2452617702344
        ],
        "ImagePositionPatient": [
          -767.76139276565,
          -783.93986653399,
          160.37950466745
        ],
        "ImageType": [
          "ORIGINAL",
          "PRIMARY",
          "M",
          "ND",
          "ECHO_00",
          "MOSAIC"
        ],
        "ImagedNucleus": "1H",
        "ImagingFrequency": 297.205037,
        "InPlanePhaseEncodingDirection": "ROW",
        "LargestImagePixelValue": 4095,
        "MRAcquisitionType": "2D",
        "MagneticFieldStrength": 6.98,
        "Manufacturer": "SIEMENS",
        "ManufacturerModelName": "Investigational_Device_7T",
        "Modality": "MR",
        "NumberOfAverages": 1.0,
        "NumberOfPhaseEncodingSteps": 94,
        "PercentPhaseFieldOfView": 100.0,
        "PercentSampling": 100.0,
        "PerformedProcedureStepStartTime": "172727.468000",
        "PhotometricInterpretation": "MONOCHROME2",
        "PixelBandwidth": 2003.0,
        "PixelRepresentation": 0,
        "PixelSpacing": [
          2.0,
          2.0
        ],
        "PositionReferenceIndicator": "",
        "ProcedureCodeSequence": [
          {
            "CodeMeaning": "MRI Procedure Limited",
            "CodeValue": "MI01491",
            "CodingSchemeDesignator": "USA Standard",
            "ContextIdentifier": "4000120229"
          }
        ],
        "ProtocolName": "NIH_EPI_2.0iso_TR2_Run12",
        "ReferencedStudySequence": [
          {
            "ReferencedSOPClassUID": "1.2.840.10008.3.1.2.3.1",
            "ReferencedSOPInstanceUID": "1.2.840.113564.9.1.2723958737.61.2.5000086040"
          }
        ],
        "RepetitionTime": 2000.0,
        "RequestedProcedureCodeSequence": [
          {
            "CodeMeaning": "MRI Procedure Limited",
            "CodeValue": "MI01491",
            "CodingSchemeDesignator": "USA Standard",
            "ContextIdentifier": "4000120229"
          }
        ],
        "RequestingService": "NIHM Molecular Imaging Branch",
        "Rows": 768,
        "SAR": 0.080499376312,
        "SamplesPerPixel": 1,
        "ScanningSequence": "EP",
        "SequenceName": "epfid2d1_96",
        "SequenceVariant": "SK",
        "SeriesDescription": "NIH_EPI_2.0iso_TR2_Run12",
        "SeriesNumber": 17,
        "SliceLocation": -33.63816362769,
        "SliceThickness": 2.0,
        "SmallestImagePixelValue": 0,
        "SoftwareVersions": "syngo MR B17",
        "SpacingBetweenSlices": 2.0000000574333,
        "TransmitCoilName": "32Ch_Head_7T",
        "VariableFlipAngleFlag": "N",
        "WindowCenterWidthExplanation": "Algo1",
        "dBdt": 0.0
      },
      "slices": {}
    },
    "modality": "bold",
    "run_id": 14,
    "session_id": "09",
    "subject_id": "001",
    "task_id": "HalfFovNoTask",
    "time": {
      "samples": {
        "AcquisitionNumber": [
          1,
          2,
          3,
          4,
          5,
          6,
          7,
          8,
          9,
          10,
          11,
          12,
          13,
          14,
          15,
          16,
          17,
          18,
          19,
          20,
          21,
          22,
          23,
          24,
          25,
          26,
          27,
          28,
          29,
          30,
          31,
          32,
          33,
          34,
          35,
          36,
          37,
          38,
          39,
          40,
          41,
          42,
          43,
          44,
          45,
          46,
          47,
          48,
          49,
          50,
          51,
          52,
          53,
          54,
          55,
          56,
          57,
          58,
          59,
          60,
          61,
          62,
          63,
          64,
          65,
          66,
          67,
          68,
          69,
          70,
          71,
          72,
          73,
          74,
          75,
          76,
          77,
          78,
          79,
          80,
          81,
          82,
          83,
          84,
          85,
          86,
          87,
          88,
          89,
          90,
          91,
          92,
          93,
          94,
          95,
          96,
          97,
          98,
          99,
          100,
          101,
          102,
          103,
          104,
          105,
          106,
          107,
          108,
          109,
          110,
          111,
          112,
          113,
          114,
          115,
          116,
          117,
          118,
          119,
          120,
          121,
          122,
          123,
          124,
          125,
          126,
          127,
          128,
          129,
          130,
          131,
          132,
          133,
          134,
          135,
          136,
          137,
          138,
          139,
          140,
          141,
          142,
          143,
          144,
          145,
          146,
          147,
          148,
          149,
          150,
          151,
          152,
          153,
          154,
          155,
          156,
          157,
          158,
          159,
          160,
          161,
          162,
          163,
          164
        ],
        "AcquisitionTime": [
          "190505.320000",
          "190509.337500",
          "190511.345000",
          "190513.352500",
          "190515.360000",
          "190517.370000",
          "190519.377500",
          "190521.385000",
          "190523.392500",
          "190525.400000",
          "190527.410000",
          "190529.417500",
          "190531.425000",
          "190533.432500",
          "190535.442500",
          "190537.450000",
          "190539.457500",
          "190541.465000",
          "190543.472500",
          "190545.482500",
          "190547.490000",
          "190549.497500",
          "190551.505000",
          "190553.512500",
          "190555.522500",
          "190557.530000",
          "190559.537500",
          "190601.545000",
          "190603.555000",
          "190605.562500",
          "190607.570000",
          "190609.577500",
          "190611.585000",
          "190613.595000",
          "190615.602500",
          "190617.610000",
          "190619.617500",
          "190621.625000",
          "190623.635000",
          "190625.642500",
          "190627.650000",
          "190629.657500",
          "190631.667500",
          "190633.675000",
          "190635.682500",
          "190637.690000",
          "190639.697500",
          "190641.707500",
          "190643.715000",
          "190645.722500",
          "190647.730000",
          "190649.737500",
          "190651.747500",
          "190653.755000",
          "190655.762500",
          "190657.770000",
          "190659.780000",
          "190701.787500",
          "190703.795000",
          "190705.802500",
          "190707.810000",
          "190709.820000",
          "190711.827500",
          "190713.835000",
          "190715.842500",
          "190717.850000",
          "190719.860000",
          "190721.867500",
          "190723.875000",
          "190725.882500",
          "190727.890000",
          "190729.900000",
          "190731.907500",
          "190733.915000",
          "190735.922500",
          "190737.932500",
          "190739.940000",
          "190741.947500",
          "190743.955000",
          "190745.962500",
          "190747.972500",
          "190749.980000",
          "190751.987500",
          "190753.995000",
          "190756.002500",
          "190758.012500",
          "190800.020000",
          "190802.027500",
          "190804.035000",
          "190806.045000",
          "190808.052500",
          "190810.060000",
          "190812.067500",
          "190814.075000",
          "190816.085000",
          "190818.092500",
          "190820.100000",
          "190822.107500",
          "190824.115000",
          "190826.125000",
          "190828.132500",
          "190830.140000",
          "190832.147500",
          "190834.157500",
          "190836.165000",
          "190838.172500",
          "190840.180000",
          "190842.187500",
          "190844.197500",
          "190846.205000",
          "190848.212500",
          "190850.220000",
          "190852.227500",
          "190854.237500",
          "190856.245000",
          "190858.252500",
          "190900.260000",
          "190902.267500",
          "190904.277500",
          "190906.285000",
          "190908.292500",
          "190910.300000",
          "190912.310000",
          "190914.317500",
          "190916.325000",
          "190918.332500",
          "190920.340000",
          "190922.350000",
          "190924.357500",
          "190926.365000",
          "190928.372500",
          "190930.380000",
          "190932.390000",
          "190934.397500",
          "190936.405000",
          "190938.412500",
          "190940.422500",
          "190942.430000",
          "190944.437500",
          "190946.445000",
          "190948.452500",
          "190950.462500",
          "190952.470000",
          "190954.477500",
          "190956.485000",
          "190958.492500",
          "191000.502500",
          "191002.510000",
          "191004.517500",
          "191006.525000",
          "191008.535000",
          "191010.542500",
          "191012.550000",
          "191014.557500",
          "191016.565000",
          "191018.575000",
          "191020.582500",
          "191022.590000",
          "191024.597500",
          "191026.605000",
          "191028.615000",
          "191030.622500",
          "191032.630000",
          "191034.637500"
        ],
        "ContentTime": [
          "190605.093000",
          "190605.093000",
          "190605.093000",
          "190605.093000",
          "190605.093000",
          "190605.093000",
          "190605.109000",
          "190605.109000",
          "190605.109000",
          "190605.109000",
          "190605.109000",
          "190605.109000",
          "190605.109000",
          "190605.125000",
          "190605.125000",
          "190605.125000",
          "190605.125000",
          "190605.125000",
          "190605.140000",
          "190605.140000",
          "190605.140000",
          "190605.140000",
          "190605.140000",
          "190605.140000",
          "190605.156000",
          "190605.156000",
          "190605.156000",
          "190605.156000",
          "190645.062000",
          "190645.062000",
          "190645.078000",
          "190645.078000",
          "190645.093000",
          "190645.093000",
          "190645.093000",
          "190645.093000",
          "190645.093000",
          "190645.093000",
          "190645.093000",
          "190645.109000",
          "190645.109000",
          "190645.109000",
          "190645.109000",
          "190645.109000",
          "190645.109000",
          "190645.125000",
          "190645.125000",
          "190645.125000",
          "190725.062000",
          "190725.062000",
          "190725.078000",
          "190725.078000",
          "190725.078000",
          "190725.078000",
          "190725.078000",
          "190725.078000",
          "190725.093000",
          "190725.093000",
          "190725.093000",
          "190725.093000",
          "190725.093000",
          "190725.093000",
          "190725.093000",
          "190725.109000",
          "190725.109000",
          "190725.109000",
          "190725.109000",
          "190725.109000",
          "190805.062000",
          "190805.062000",
          "190805.078000",
          "190805.078000",
          "190805.078000",
          "190805.078000",
          "190805.078000",
          "190805.078000",
          "190805.078000",
          "190805.093000",
          "190805.093000",
          "190805.093000",
          "190805.109000",
          "190805.109000",
          "190805.109000",
          "190805.109000",
          "190805.109000",
          "190805.109000",
          "190805.109000",
          "190805.125000",
          "190845.062000",
          "190845.078000",
          "190845.078000",
          "190845.078000",
          "190845.078000",
          "190845.093000",
          "190845.093000",
          "190845.093000",
          "190845.093000",
          "190845.093000",
          "190845.093000",
          "190845.109000",
          "190845.109000",
          "190845.109000",
          "190845.109000",
          "190845.109000",
          "190845.109000",
          "190845.125000",
          "190845.125000",
          "190845.140000",
          "190925.062000",
          "190925.062000",
          "190925.078000",
          "190925.078000",
          "190925.078000",
          "190925.078000",
          "190925.078000",
          "190925.093000",
          "190925.093000",
          "190925.093000",
          "190925.093000",
          "190925.093000",
          "190925.093000",
          "190925.093000",
          "190925.109000",
          "190925.109000",
          "190925.109000",
          "190925.109000",
          "190925.109000",
          "190925.109000",
          "191005.062000",
          "191005.062000",
          "191005.078000",
          "191005.078000",
          "191005.078000",
          "191005.078000",
          "191005.078000",
          "191005.093000",
          "191005.093000",
          "191005.093000",
          "191005.093000",
          "191005.093000",
          "191005.093000",
          "191005.109000",
          "191005.109000",
          "191005.109000",
          "191005.109000",
          "191005.109000",
          "191005.125000",
          "191005.125000",
          "191035.359000",
          "191035.359000",
          "191035.359000",
          "191035.359000",
          "191035.359000",
          "191035.359000",
          "191035.375000",
          "191035.375000",
          "191035.375000",
          "191035.390000",
          "191035.390000",
          "191035.390000",
          "191035.390000",
          "191035.406000",
          "191035.406000",
          "191035.406000"
        ],
        "InstanceCreationTime": [
          "190605.093000",
          "190605.093000",
          "190605.093000",
          "190605.093000",
          "190605.093000",
          "190605.093000",
          "190605.109000",
          "190605.109000",
          "190605.109000",
          "190605.109000",
          "190605.109000",
          "190605.109000",
          "190605.109000",
          "190605.125000",
          "190605.125000",
          "190605.125000",
          "190605.125000",
          "190605.125000",
          "190605.140000",
          "190605.140000",
          "190605.140000",
          "190605.140000",
          "190605.140000",
          "190605.140000",
          "190605.156000",
          "190605.156000",
          "190605.156000",
          "190605.156000",
          "190645.062000",
          "190645.062000",
          "190645.078000",
          "190645.078000",
          "190645.093000",
          "190645.093000",
          "190645.093000",
          "190645.093000",
          "190645.093000",
          "190645.093000",
          "190645.093000",
          "190645.109000",
          "190645.109000",
          "190645.109000",
          "190645.109000",
          "190645.109000",
          "190645.109000",
          "190645.125000",
          "190645.125000",
          "190645.125000",
          "190725.062000",
          "190725.062000",
          "190725.078000",
          "190725.078000",
          "190725.078000",
          "190725.078000",
          "190725.078000",
          "190725.078000",
          "190725.093000",
          "190725.093000",
          "190725.093000",
          "190725.093000",
          "190725.093000",
          "190725.093000",
          "190725.093000",
          "190725.109000",
          "190725.109000",
          "190725.109000",
          "190725.109000",
          "190725.109000",
          "190805.062000",
          "190805.062000",
          "190805.078000",
          "190805.078000",
          "190805.078000",
          "190805.078000",
          "190805.078000",
          "190805.078000",
          "190805.078000",
          "190805.093000",
          "190805.093000",
          "190805.093000",
          "190805.109000",
          "190805.109000",
          "190805.109000",
          "190805.109000",
          "190805.109000",
          "190805.109000",
          "190805.109000",
          "190805.125000",
          "190845.062000",
          "190845.078000",
          "190845.078000",
          "190845.078000",
          "190845.078000",
          "190845.093000",
          "190845.093000",
          "190845.093000",
          "190845.093000",
          "190845.093000",
          "190845.093000",
          "190845.109000",
          "190845.109000",
          "190845.109000",
          "190845.109000",
          "190845.109000",
          "190845.109000",
          "190845.125000",
          "190845.125000",
          "190845.140000",
          "190925.062000",
          "190925.062000",
          "190925.078000",
          "190925.078000",
          "190925.078000",
          "190925.078000",
          "190925.078000",
          "190925.093000",
          "190925.093000",
          "190925.093000",
          "190925.093000",
          "190925.093000",
          "190925.093000",
          "190925.093000",
          "190925.109000",
          "190925.109000",
          "190925.109000",
          "190925.109000",
          "190925.109000",
          "190925.109000",
          "191005.062000",
          "191005.062000",
          "191005.078000",
          "191005.078000",
          "191005.078000",
          "191005.078000",
          "191005.078000",
          "191005.093000",
          "191005.093000",
          "191005.093000",
          "191005.093000",
          "191005.093000",
          "191005.093000",
          "191005.109000",
          "191005.109000",
          "191005.109000",
          "191005.109000",
          "191005.109000",
          "191005.125000",
          "191005.125000",
          "191035.359000",
          "191035.359000",
          "191035.359000",
          "191035.359000",
          "191035.359000",
          "191035.359000",
          "191035.375000",
          "191035.375000",
          "191035.375000",
          "191035.390000",
          "191035.390000",
          "191035.390000",
          "191035.390000",
          "191035.406000",
          "191035.406000",
          "191035.406000"
        ],
        "InstanceNumber": [
          1,
          2,
          3,
          4,
          5,
          6,
          7,
          8,
          9,
          10,
          11,
          12,
          13,
          14,
          15,
          16,
          17,
          18,
          19,
          20,
          21,
          22,
          23,
          24,
          25,
          26,
          27,
          28,
          29,
          30,
          31,
          32,
          33,
          34,
          35,
          36,
          37,
          38,
          39,
          40,
          41,
          42,
          43,
          44,
          45,
          46,
          47,
          48,
          49,
          50,
          51,
          52,
          53,
          54,
          55,
          56,
          57,
          58,
          59,
          60,
          61,
          62,
          63,
          64,
          65,
          66,
          67,
          68,
          69,
          70,
          71,
          72,
          73,
          74,
          75,
          76,
          77,
          78,
          79,
          80,
          81,
          82,
          83,
          84,
          85,
          86,
          87,
          88,
          89,
          90,
          91,
          92,
          93,
          94,
          95,
          96,
          97,
          98,
          99,
          100,
          101,
          102,
          103,
          104,
          105,
          106,
          107,
          108,
          109,
          110,
          111,
          112,
          113,
          114,
          115,
          116,
          117,
          118,
          119,
          120,
          121,
          122,
          123,
          124,
          125,
          126,
          127,
          128,
          129,
          130,
          131,
          132,
          133,
          134,
          135,
          136,
          137,
          138,
          139,
          140,
          141,
          142,
          143,
          144,
          145,
          146,
          147,
          148,
          149,
          150,
          151,
          152,
          153,
          154,
          155,
          156,
          157,
          158,
          159,
          160,
          161,
          162,
          163,
          164
        ],
        "WindowCenter": [
          1236.0,
          1235.0,
          1237.0,
          1239.0,
          1239.0,
          1239.0,
          1238.0,
          1238.0,
          1239.0,
          1239.0,
          1240.0,
          1241.0,
          1242.0,
          1242.0,
          1241.0,
          1241.0,
          1242.0,
          1242.0,
          1242.0,
          1241.0,
          1239.0,
          1238.0,
          1237.0,
          1238.0,
          1239.0,
          1239.0,
          1237.0,
          1235.0,
          1235.0,
          1236.0,
          1238.0,
          1239.0,
          1237.0,
          1236.0,
          1234.0,
          1233.0,
          1233.0,
          1235.0,
          1235.0,
          1234.0,
          1233.0,
          1235.0,
          1235.0,
          1234.0,
          1234.0,
          1237.0,
          1238.0,
          1236.0,
          1233.0,
          1233.0,
          1236.0,
          1239.0,
          1239.0,
          1237.0,
          1235.0,
          1237.0,
          1237.0,
          1236.0,
          1233.0,
          1232.0,
          1233.0,
          1236.0,
          1237.0,
          1238.0,
          1236.0,
          1236.0,
          1238.0,
          1238.0,
          1238.0,
          1237.0,
          1239.0,
          1240.0,
          1241.0,
          1240.0,
          1239.0,
          1239.0,
          1236.0,
          1235.0,
          1237.0,
          1236.0,
          1237.0,
          1237.0,
          1236.0,
          1237.0,
          1238.0,
          1238.0,
          1238.0,
          1238.0,
          1238.0,
          1238.0,
          1238.0,
          1237.0,
          1237.0,
          1237.0,
          1237.0,
          1237.0,
          1237.0,
          1238.0,
          1240.0,
          1240.0,
          1241.0,
          1242.0,
          1241.0,
          1240.0,
          1240.0,
          1240.0,
          1241.0,
          1240.0,
          1238.0,
          1238.0,
          1240.0,
          1241.0,
          1240.0,
          1238.0,
          1237.0,
          1237.0,
          1237.0,
          1236.0,
          1235.0,
          1235.0,
          1236.0,
          1236.0,
          1237.0,
          1236.0,
          1235.0,
          1236.0,
          1237.0,
          1237.0,
          1236.0,
          1234.0,
          1234.0,
          1235.0,
          1235.0,
          1234.0,
          1234.0,
          1235.0,
          1238.0,
          1239.0,
          1239.0,
          1237.0,
          1236.0,
          1238.0,
          1238.0,
          1240.0,
          1242.0,
          1241.0,
          1239.0,
          1240.0,
          1240.0,
          1240.0,
          1239.0,
          1239.0,
          1239.0,
          1239.0,
          1238.0,
          1238.0,
          1239.0,
          1240.0,
          1239.0,
          1238.0,
          1238.0,
          1238.0,
          1238.0,
          1237.0
        ],
        "WindowWidth": [
          2944.0,
          2945.0,
          2947.0,
          2953.0,
          2951.0,
          2950.0,
          2950.0,
          2954.0,
          2954.0,
          2957.0,
          2959.0,
          2962.0,
          2962.0,
          2962.0,
          2962.0,
          2959.0,
          2961.0,
          2962.0,
          2961.0,
          2956.0,
          2952.0,
          2951.0,
          2949.0,
          2950.0,
          2953.0,
          2953.0,
          2947.0,
          2943.0,
          2943.0,
          2948.0,
          2953.0,
          2955.0,
          2953.0,
          2948.0,
          2944.0,
          2943.0,
          2942.0,
          2943.0,
          2944.0,
          2940.0,
          2940.0,
          2944.0,
          2942.0,
          2942.0,
          2938.0,
          2950.0,
          2951.0,
          2942.0,
          2937.0,
          2939.0,
          2948.0,
          2952.0,
          2949.0,
          2944.0,
          2941.0,
          2944.0,
          2948.0,
          2945.0,
          2938.0,
          2934.0,
          2935.0,
          2942.0,
          2948.0,
          2945.0,
          2942.0,
          2943.0,
          2949.0,
          2948.0,
          2945.0,
          2946.0,
          2949.0,
          2952.0,
          2954.0,
          2951.0,
          2950.0,
          2949.0,
          2943.0,
          2943.0,
          2945.0,
          2945.0,
          2944.0,
          2944.0,
