{
  "aor": 0.00411548780487805,
  "aqi": 0.007007782134146342,
  "bids_meta": {
    "AcquisitionMatrixPE": 96,
    "AcquisitionNumber": 1,
    "AcquisitionTime": "17:56:59.682500",
    "BandwidthPerPixelPhaseEncode": 52.083,
    "BaseResolution": 96,
    "BodyPartExamined": "HEAD",
    "ConversionSoftware": "dcm2niix",
    "ConversionSoftwareVersion": "v1.0.20180622 GCC6.3.0",
    "DerivedVendorReportedEchoSpacing": 0.000600004,
    "DeviceSerialNumber": "18926",
    "DwellTime": 2.6e-06,
    "EchoTime": 0.025,
    "EffectiveEchoSpacing": 0.000200001,
    "FlipAngle": 50,
    "ImageOrientationPatientDICOM": [
      0.999992,
      0.00100659,
      0.00397877,
      1.98401e-10,
      0.969457,
      -0.245262
    ],
    "ImageType": [
      "ORIGINAL",
      "PRIMARY",
      "M",
      "ND",
      "ECHO",
      "00",
      "MOSAIC"
    ],
    "InPlanePhaseEncodingDirectionDICOM": "ROW",
    "InstitutionName": "NIMH",
    "InstitutionalDepartmentName": "Department",
    "MRAcquisitionType": "2D",
    "MagneticFieldStrength": 6.98,
    "Manufacturer": "Siemens",
    "ManufacturersModelName": "Investigational_Device_7T",
    "Modality": "MR",
    "ParallelReductionFactorInPlane": 3,
    "PartialFourier": 1,
    "PatientPosition": "HFS",
    "PercentPhaseFOV": 100,
    "PhaseEncodingDirection": "i",
    "PhaseEncodingSteps": 94,
    "PhaseResolution": 1,
    "PixelBandwidth": 2003,
    "ProcedureStepDescription": "MRI_Procedure_Limited",
    "ProtocolName": "NIH_EPI_2.0iso_TR2_Run02",
    "PulseSequenceDetails": "%CustomerSeq%_inati_nih_epi",
    "ReceiveCoilName": "32Ch_Head_7T",
    "ReconMatrixPE": 96,
    "RepetitionTime": 2,
    "SAR": 0.0804994,
    "ScanningSequence": "EP",
    "SequenceName": "epfid2d1_96",
    "SequenceVariant": "SK",
    "SeriesDescription": "NIH_EPI_2.0iso_TR2_Run02",
    "SeriesNumber": 7,
    "ShimSetting": [
      -39,
      169,
      894,
      1298,
      -62,
      494,
      -26,
      -417
    ],
    "SliceThickness": 2,
    "SliceTiming": [
      1.0025,
      0,
      1.04,
      0.0375,
      1.0775,
      0.075,
      1.115,
      0.11,
      1.1525,
      0.1475,
      1.19,
      0.185,
      1.2275,
      0.2225,
      1.2625,
      0.26,
      1.3,
      0.2975,
      1.3375,
      0.335,
      1.375,
      0.3725,
      1.4125,
      0.4075,
      1.45,
      0.445,
      1.4875,
      0.4825,
      1.525,
      0.52,
      1.56,
      0.5575,
      1.5975,
      0.595,
      1.635,
      0.6325,
      1.6725,
      0.67,
      1.71,
      0.705,
      1.7475,
      0.7425,
      1.785,
      0.78,
      1.8225,
      0.8175,
      1.8575,
      0.855,
      1.895,
      0.8925,
      1.9325,
      0.93,
      1.97,
      0.965
    ],
    "SoftwareVersions": "syngo_MR_B17",
    "SpacingBetweenSlices": 2,
    "StationName": "FMRIFD7T",
    "TaskName": "HalfFovNoTask",
    "TotalReadoutTime": 0.0190001,
    "TxRefAmp": 322,
    "dataset": "ds001555",
    "dcmmeta_affine": [
      [
        -1.9999831914901733,
        3.9680239649619864e-10,
        0.008208253420889378,
        95.76705169677734
      ],
      [
        -0.0020131703931838274,
        1.9389138221740723,
        -0.4905194342136383,
        -52.40839767456055
      ],
      [
        0.007957547903060913,
        0.4905235469341278,
        1.9388974905014038,
        -48.362403869628906
      ],
      [
        0.0,
        0.0,
        0.0,
        1.0
      ]
    ],
    "dcmmeta_reorient_transform": [
      [
        0.0,
        -1.0,
        0.0,
        95.0
      ],
      [
        1.0,
        0.0,
        0.0,
        0.0
      ],
      [
        0.0,
        0.0,
        1.0,
        0.0
      ],
      [
        0.0,
        0.0,
        0.0,
        1.0
      ]
    ],
    "dcmmeta_shape": [
      96,
      96,
      54,
      164
    ],
    "dcmmeta_slice_dim": 2,
    "dcmmeta_version": 0.6,
    "global": {
      "const": {
        "AcquisitionMatrix": [
          0,
          96,
          96,
          0
        ],
        "Allergies": "No Known Allergies",
        "AngioFlag": "N",
        "BitsAllocated": 16,
        "BitsStored": 12,
        "BodyPartExamined": "HEAD",
        "Columns": 768,
        "EchoNumbers": 1,
        "EchoTime": 25.0,
        "EchoTrainLength": 1,
        "FlipAngle": 50.0,
        "HighBit": 11,
        "ImageOrientationPatient": [
          0.99999157803706,
          0.00100658515696,
          0.00397877384048,
          1.984012e-10,
          0.96945689128577,
          -0.2452617702344
        ],
        "ImagePositionPatient": [
          -767.76139276565,
          -783.93986653399,
          160.37950466745
        ],
        "ImageType": [
          "ORIGINAL",
          "PRIMARY",
          "M",
          "ND",
          "ECHO_00",
          "MOSAIC"
        ],
        "ImagedNucleus": "1H",
        "ImagingFrequency": 297.20487,
        "InPlanePhaseEncodingDirection": "ROW",
        "LargestImagePixelValue": 4095,
        "MRAcquisitionType": "2D",
        "MagneticFieldStrength": 6.98,
        "Manufacturer": "SIEMENS",
        "ManufacturerModelName": "Investigational_Device_7T",
        "Modality": "MR",
        "NumberOfAverages": 1.0,
        "NumberOfPhaseEncodingSteps": 94,
        "PercentPhaseFieldOfView": 100.0,
        "PercentSampling": 100.0,
        "PerformedProcedureStepStartTime": "172727.468000",
        "PhotometricInterpretation": "MONOCHROME2",
        "PixelBandwidth": 2003.0,
        "PixelRepresentation": 0,
        "PixelSpacing": [
          2.0,
          2.0
        ],
        "PositionReferenceIndicator": "",
        "ProcedureCodeSequence": [
          {
            "CodeMeaning": "MRI Procedure Limited",
            "CodeValue": "MI01491",
            "CodingSchemeDesignator": "USA Standard",
            "ContextIdentifier": "4000120229"
          }
        ],
        "ProtocolName": "NIH_EPI_2.0iso_TR2_Run02",
        "ReferencedStudySequence": [
          {
            "ReferencedSOPClassUID": "1.2.840.10008.3.1.2.3.1",
            "ReferencedSOPInstanceUID": "1.2.840.113564.9.1.2723958737.61.2.5000086040"
          }
        ],
        "RepetitionTime": 2000.0,
        "RequestedProcedureCodeSequence": [
          {
            "CodeMeaning": "MRI Procedure Limited",
            "CodeValue": "MI01491",
            "CodingSchemeDesignator": "USA Standard",
            "ContextIdentifier": "4000120229"
          }
        ],
        "RequestingService": "NIHM Molecular Imaging Branch",
        "Rows": 768,
        "SAR": 0.080499376312,
        "SamplesPerPixel": 1,
        "ScanningSequence": "EP",
        "SequenceName": "epfid2d1_96",
        "SequenceVariant": "SK",
        "SeriesDescription": "NIH_EPI_2.0iso_TR2_Run02",
        "SeriesNumber": 7,
        "SliceLocation": -33.63816362769,
        "SliceThickness": 2.0,
        "SmallestImagePixelValue": 0,
        "SoftwareVersions": "syngo MR B17",
        "SpacingBetweenSlices": 2.0000000574333,
        "TransmitCoilName": "32Ch_Head_7T",
        "VariableFlipAngleFlag": "N",
        "WindowCenterWidthExplanation": "Algo1",
        "dBdt": 0.0
      },
      "slices": {}
    },
    "modality": "bold",
    "run_id": 4,
    "session_id": "09",
    "subject_id": "001",
    "task_id": "HalfFovNoTask",
    "time": {
      "samples": {
        "AcquisitionNumber": [
          1,
          2,
          3,
          4,
          5,
          6,
          7,
          8,
          9,
          10,
          11,
          12,
          13,
          14,
          15,
          16,
          17,
          18,
          19,
          20,
          21,
          22,
          23,
          24,
          25,
          26,
          27,
          28,
          29,
          30,
          31,
          32,
          33,
          34,
          35,
          36,
          37,
          38,
          39,
          40,
          41,
          42,
          43,
          44,
          45,
          46,
          47,
          48,
          49,
          50,
          51,
          52,
          53,
          54,
          55,
          56,
          57,
          58,
          59,
          60,
          61,
          62,
          63,
          64,
          65,
          66,
          67,
          68,
          69,
          70,
          71,
          72,
          73,
          74,
          75,
          76,
          77,
          78,
          79,
          80,
          81,
          82,
          83,
          84,
          85,
          86,
          87,
          88,
          89,
          90,
          91,
          92,
          93,
          94,
          95,
          96,
          97,
          98,
          99,
          100,
          101,
          102,
          103,
          104,
          105,
          106,
          107,
          108,
          109,
          110,
          111,
          112,
          113,
          114,
          115,
          116,
          117,
          118,
          119,
          120,
          121,
          122,
          123,
          124,
          125,
          126,
          127,
          128,
          129,
          130,
          131,
          132,
          133,
          134,
          135,
          136,
          137,
          138,
          139,
          140,
          141,
          142,
          143,
          144,
          145,
          146,
          147,
          148,
          149,
          150,
          151,
          152,
          153,
          154,
          155,
          156,
          157,
          158,
          159,
          160,
          161,
          162,
          163,
          164
        ],
        "AcquisitionTime": [
          "175659.682500",
          "175703.700000",
          "175705.707500",
          "175707.715000",
          "175709.722500",
          "175711.732500",
          "175713.740000",
          "175715.747500",
          "175717.755000",
          "175719.762500",
          "175721.772500",
          "175723.780000",
          "175725.787500",
          "175727.795000",
          "175729.805000",
          "175731.812500",
          "175733.820000",
          "175735.827500",
          "175737.835000",
          "175739.845000",
          "175741.852500",
          "175743.860000",
          "175745.867500",
          "175747.875000",
          "175749.885000",
          "175751.892500",
          "175753.900000",
          "175755.907500",
          "175757.917500",
          "175759.925000",
          "175801.932500",
          "175803.940000",
          "175805.947500",
          "175807.957500",
          "175809.965000",
          "175811.972500",
          "175813.980000",
          "175815.987500",
          "175817.997500",
          "175820.005000",
          "175822.012500",
          "175824.020000",
          "175826.030000",
          "175828.037500",
          "175830.045000",
          "175832.052500",
          "175834.060000",
          "175836.070000",
          "175838.077500",
          "175840.085000",
          "175842.092500",
          "175844.100000",
          "175846.110000",
          "175848.117500",
          "175850.125000",
          "175852.132500",
          "175854.140000",
          "175856.150000",
          "175858.157500",
          "175900.165000",
          "175902.172500",
          "175904.182500",
          "175906.190000",
          "175908.197500",
          "175910.205000",
          "175912.212500",
          "175914.222500",
          "175916.230000",
          "175918.237500",
          "175920.245000",
          "175922.252500",
          "175924.262500",
          "175926.270000",
          "175928.277500",
          "175930.285000",
          "175932.295000",
          "175934.302500",
          "175936.310000",
          "175938.317500",
          "175940.325000",
          "175942.335000",
          "175944.342500",
          "175946.350000",
          "175948.357500",
          "175950.365000",
          "175952.375000",
          "175954.382500",
          "175956.390000",
          "175958.397500",
          "180000.407500",
          "180002.415000",
          "180004.422500",
          "180006.430000",
          "180008.437500",
          "180010.447500",
          "180012.455000",
          "180014.462500",
          "180016.470000",
          "180018.477500",
          "180020.487500",
          "180022.495000",
          "180024.502500",
          "180026.510000",
          "180028.517500",
          "180030.527500",
          "180032.535000",
          "180034.542500",
          "180036.550000",
          "180038.560000",
          "180040.567500",
          "180042.575000",
          "180044.582500",
          "180046.590000",
          "180048.600000",
          "180050.607500",
          "180052.615000",
          "180054.622500",
          "180056.630000",
          "180058.640000",
          "180100.647500",
          "180102.655000",
          "180104.662500",
          "180106.672500",
          "180108.680000",
          "180110.687500",
          "180112.695000",
          "180114.702500",
          "180116.712500",
          "180118.720000",
          "180120.727500",
          "180122.735000",
          "180124.742500",
          "180126.752500",
          "180128.760000",
          "180130.767500",
          "180132.775000",
          "180134.785000",
          "180136.792500",
          "180138.800000",
          "180140.807500",
          "180142.815000",
          "180144.825000",
          "180146.832500",
          "180148.840000",
          "180150.847500",
          "180152.855000",
          "180154.865000",
          "180156.872500",
          "180158.880000",
          "180200.887500",
          "180202.895000",
          "180204.905000",
          "180206.912500",
          "180208.920000",
          "180210.927500",
          "180212.937500",
          "180214.945000",
          "180216.952500",
          "180218.960000",
          "180220.967500",
          "180222.977500",
          "180224.985000",
          "180226.992500",
          "180229.000000"
        ],
        "ContentTime": [
          "175750.203000",
          "175750.203000",
          "175750.203000",
          "175750.203000",
          "175750.203000",
          "175750.203000",
          "175750.218000",
          "175750.218000",
          "175750.218000",
          "175750.218000",
          "175750.218000",
          "175750.218000",
          "175750.218000",
          "175750.234000",
          "175750.234000",
          "175750.234000",
          "175750.234000",
          "175750.234000",
          "175750.250000",
          "175750.250000",
          "175750.250000",
          "175750.250000",
          "175750.250000",
          "175750.250000",
          "175830.187000",
          "175830.187000",
          "175830.187000",
          "175830.187000",
          "175830.187000",
          "175830.203000",
          "175830.203000",
          "175830.203000",
          "175830.203000",
          "175830.203000",
          "175830.203000",
          "175830.218000",
          "175830.218000",
          "175830.218000",
          "175830.218000",
          "175830.218000",
          "175830.218000",
          "175830.234000",
          "175830.234000",
          "175830.234000",
          "175910.187000",
          "175910.187000",
          "175910.187000",
          "175910.187000",
          "175910.187000",
          "175910.203000",
          "175910.203000",
          "175910.203000",
          "175910.203000",
          "175910.203000",
          "175910.218000",
          "175910.218000",
          "175910.218000",
          "175910.218000",
          "175910.218000",
          "175910.234000",
          "175910.234000",
          "175910.234000",
          "175910.234000",
          "175910.234000",
          "175950.187000",
          "175950.187000",
          "175950.187000",
          "175950.187000",
          "175950.187000",
          "175950.203000",
          "175950.203000",
          "175950.203000",
          "175950.203000",
          "175950.203000",
          "175950.203000",
          "175950.218000",
          "175950.218000",
          "175950.218000",
          "175950.218000",
          "175950.218000",
          "175950.234000",
          "175950.234000",
          "175950.234000",
          "175950.250000",
          "180030.187000",
          "180030.187000",
          "180030.187000",
          "180030.187000",
          "180030.187000",
          "180030.203000",
          "180030.203000",
          "180030.203000",
          "180030.203000",
          "180030.203000",
          "180030.203000",
          "180030.203000",
          "180030.218000",
          "180030.218000",
          "180030.218000",
          "180030.218000",
          "180030.218000",
          "180030.218000",
          "180030.234000",
          "180030.234000",
          "180110.187000",
          "180110.187000",
          "180110.187000",
          "180110.187000",
          "180110.187000",
          "180110.203000",
          "180110.203000",
          "180110.203000",
          "180110.203000",
          "180110.203000",
          "180110.218000",
          "180110.218000",
          "180110.218000",
          "180110.218000",
          "180110.218000",
          "180110.218000",
          "180110.234000",
          "180110.234000",
          "180110.234000",
          "180110.234000",
          "180150.187000",
          "180150.187000",
          "180150.187000",
          "180150.187000",
          "180150.187000",
          "180150.203000",
          "180150.203000",
          "180150.203000",
          "180150.203000",
          "180150.203000",
          "180150.203000",
          "180150.218000",
          "180150.218000",
          "180150.218000",
          "180150.218000",
          "180150.218000",
          "180150.234000",
          "180150.234000",
          "180150.234000",
          "180150.234000",
          "180229.234000",
          "180229.250000",
          "180229.250000",
          "180229.250000",
          "180229.250000",
          "180229.250000",
          "180229.250000",
          "180229.265000",
          "180229.265000",
          "180229.265000",
          "180229.265000",
          "180229.265000",
          "180229.265000",
          "180229.281000",
          "180229.281000",
          "180229.281000",
          "180229.281000",
          "180229.281000",
          "180229.281000",
          "180229.296000"
        ],
        "InstanceCreationTime": [
          "175750.203000",
          "175750.203000",
          "175750.203000",
          "175750.203000",
          "175750.203000",
          "175750.203000",
          "175750.218000",
          "175750.218000",
          "175750.218000",
          "175750.218000",
          "175750.218000",
          "175750.218000",
          "175750.218000",
          "175750.234000",
          "175750.234000",
          "175750.234000",
          "175750.234000",
          "175750.234000",
          "175750.250000",
          "175750.250000",
          "175750.250000",
          "175750.250000",
          "175750.250000",
          "175750.250000",
          "175830.187000",
          "175830.187000",
          "175830.187000",
          "175830.187000",
          "175830.187000",
          "175830.203000",
          "175830.203000",
          "175830.203000",
          "175830.203000",
          "175830.203000",
          "175830.203000",
          "175830.218000",
          "175830.218000",
          "175830.218000",
          "175830.218000",
          "175830.218000",
          "175830.218000",
          "175830.234000",
          "175830.234000",
          "175830.234000",
          "175910.187000",
          "175910.187000",
          "175910.187000",
          "175910.187000",
          "175910.187000",
          "175910.203000",
          "175910.203000",
          "175910.203000",
          "175910.203000",
          "175910.203000",
          "175910.218000",
          "175910.218000",
          "175910.218000",
          "175910.218000",
          "175910.218000",
          "175910.234000",
          "175910.234000",
          "175910.234000",
          "175910.234000",
          "175910.234000",
          "175950.187000",
          "175950.187000",
          "175950.187000",
          "175950.187000",
          "175950.187000",
          "175950.203000",
          "175950.203000",
          "175950.203000",
          "175950.203000",
          "175950.203000",
          "175950.203000",
          "175950.218000",
          "175950.218000",
          "175950.218000",
          "175950.218000",
          "175950.218000",
          "175950.234000",
          "175950.234000",
          "175950.234000",
          "175950.250000",
          "180030.187000",
          "180030.187000",
          "180030.187000",
          "180030.187000",
          "180030.187000",
          "180030.203000",
          "180030.203000",
          "180030.203000",
          "180030.203000",
          "180030.203000",
          "180030.203000",
          "180030.203000",
          "180030.218000",
          "180030.218000",
          "180030.218000",
          "180030.218000",
          "180030.218000",
          "180030.218000",
          "180030.234000",
          "180030.234000",
          "180110.187000",
          "180110.187000",
          "180110.187000",
          "180110.187000",
          "180110.187000",
          "180110.203000",
          "180110.203000",
          "180110.203000",
          "180110.203000",
          "180110.203000",
          "180110.218000",
          "180110.218000",
          "180110.218000",
          "180110.218000",
          "180110.218000",
          "180110.218000",
          "180110.234000",
          "180110.234000",
          "180110.234000",
          "180110.234000",
          "180150.187000",
          "180150.187000",
          "180150.187000",
          "180150.187000",
          "180150.187000",
          "180150.203000",
          "180150.203000",
          "180150.203000",
          "180150.203000",
          "180150.203000",
          "180150.203000",
          "180150.218000",
          "180150.218000",
          "180150.218000",
          "180150.218000",
          "180150.218000",
          "180150.234000",
          "180150.234000",
          "180150.234000",
          "180150.234000",
          "180229.234000",
          "180229.250000",
          "180229.250000",
          "180229.250000",
          "180229.250000",
          "180229.250000",
          "180229.250000",
          "180229.265000",
          "180229.265000",
          "180229.265000",
          "180229.265000",
          "180229.265000",
          "180229.265000",
          "180229.281000",
          "180229.281000",
          "180229.281000",
          "180229.281000",
          "180229.281000",
          "180229.281000",
          "180229.296000"
        ],
        "InstanceNumber": [
          1,
          2,
          3,
          4,
          5,
          6,
          7,
          8,
          9,
          10,
          11,
          12,
          13,
          14,
          15,
          16,
          17,
          18,
          19,
          20,
          21,
          22,
          23,
          24,
          25,
          26,
          27,
          28,
          29,
          30,
          31,
          32,
          33,
          34,
          35,
          36,
          37,
          38,
          39,
          40,
          41,
          42,
          43,
          44,
          45,
          46,
          47,
          48,
          49,
          50,
          51,
          52,
          53,
          54,
          55,
          56,
          57,
          58,
          59,
          60,
          61,
          62,
          63,
          64,
          65,
          66,
          67,
          68,
          69,
          70,
          71,
          72,
          73,
          74,
          75,
          76,
          77,
          78,
          79,
          80,
          81,
          82,
          83,
          84,
          85,
          86,
          87,
          88,
          89,
          90,
          91,
          92,
          93,
          94,
          95,
          96,
          97,
          98,
          99,
          100,
          101,
          102,
          103,
          104,
          105,
          106,
          107,
          108,
          109,
          110,
          111,
          112,
          113,
          114,
          115,
          116,
          117,
          118,
          119,
          120,
          121,
          122,
          123,
          124,
          125,
          126,
          127,
          128,
          129,
          130,
          131,
          132,
          133,
          134,
          135,
          136,
          137,
          138,
          139,
          140,
          141,
          142,
          143,
          144,
          145,
          146,
          147,
          148,
          149,
          150,
          151,
          152,
          153,
          154,
          155,
          156,
          157,
          158,
          159,
          160,
          161,
          162,
          163,
          164
        ],
        "WindowCenter": [
          1236.0,
          1235.0,
          1236.0,
          1238.0,
          1236.0,
          1234.0,
          1234.0,
          1234.0,
          1236.0,
          1237.0,
          1235.0,
          1235.0,
          1235.0,
          1234.0,
          1236.0,
          1237.0,
          1240.0,
          1238.0,
          1235.0,
          1236.0,
          1238.0,
          1240.0,
          1238.0,
          1238.0,
          1237.0,
          1235.0,
          1234.0,
          1233.0,
          1233.0,
          1236.0,
          1238.0,
          1238.0,
          1236.0,
          1234.0,
          1235.0,
          1238.0,
          1238.0,
          1240.0,
          1242.0,
          1241.0,
          1239.0,
          1239.0,
          1241.0,
          1242.0,
          1241.0,
          1239.0,
          1236.0,
          1235.0,
          1234.0,
          1237.0,
          1238.0,
          1236.0,
          1236.0,
          1234.0,
          1234.0,
          1233.0,
          1233.0,
          1234.0,
          1234.0,
          1233.0,
          1235.0,
          1237.0,
          1236.0,
          1236.0,
          1236.0,
          1239.0,
          1242.0,
          1241.0,
          1239.0,
          1237.0,
          1237.0,
          1238.0,
          1238.0,
          1237.0,
          1235.0,
          1235.0,
          1233.0,
          1233.0,
          1238.0,
          1237.0,
          1235.0,
          1233.0,
          1231.0,
          1232.0,
          1237.0,
          1240.0,
          1239.0,
          1236.0,
          1236.0,
          1236.0,
          1237.0,
          1239.0,
          1239.0,
          1237.0,
          1236.0,
          1238.0,
          1240.0,
          1234.0,
          1232.0,
          1234.0,
          1233.0,
          1236.0,
          1240.0,
          1241.0,
          1238.0,
          1236.0,
          1239.0,
          1242.0,
          1242.0,
          1241.0,
          1240.0,
          1241.0,
          1243.0,
          1242.0,
          1239.0,
          1236.0,
          1237.0,
          1239.0,
          1238.0,
          1236.0,
          1235.0,
          1235.0,
          1237.0,
          1237.0,
          1237.0,
          1237.0,
          1236.0,
          1236.0,
          1237.0,
          1238.0,
          1238.0,
          1236.0,
          1237.0,
          1239.0,
          1240.0,
          1241.0,
          1238.0,
          1236.0,
          1237.0,
          1239.0,
          1241.0,
          1238.0,
          1237.0,
          1237.0,
          1238.0,
          1238.0,
          1240.0,
          1238.0,
          1238.0,
          1239.0,
          1238.0,
          1237.0,
          1236.0,
          1237.0,
          1236.0,
          1236.0,
          1237.0,
          1238.0,
          1239.0,
          1239.0,
          1240.0,
          1240.0,
          1240.0,
          1239.0
        ],
        "WindowWidth": [
          2950.0,
          2950.0,
          2956.0,
          2957.0,
          2951.0,
          2948.0,
          2951.0,
          2953.0,
          2955.0,
          2954.0,
          2951.0,
          2952.0,
          2951.0,
          2952.0,
          2955.0,
          2959.0,
          2963.0,
          2960.0,
          2954.0,
          2955.0,
          2960.0,
          2963.0,
          2959.0,
          2956.0,
          2955.0,
          2952.0,
          2951.0,
          2943.0,
          2947.0,
          2954.0,
          2962.0,
          2958.0,
          2952.0,
          2952.0,
          2954.0,
          2959.0,
          2956.0,
          2963.0,
          2965.0,
          2963.0,
          2960.0,
          2958.0,
          2962.0,
          2965.0,
          2966.0,
          2960.0,
          2952.0,
          2949.0,
          2951.0,
          2958.0,
          2959.0,
          2953.0,
          2950.0,
          2949.0,
          2947.0,
          2948.0,
          2947.0,
          2948.0,
          2947.0,
          2945.0,
          2949.0,
          2953.0,
          2952.0,
          2951.0,
          2952.0,
          2960.0,
          2963.0,
          2965.0,
          2958.0,
          2955.0,
          2954.0,
          2955.0,
          2955.0,
          2953.0,
          2949.0,
          2946.0,
          2946.0,
          2946.0,
          2956.0,
          2951.0,
          2946.0,
          2943.0,
