{
  "aor": 0.0050168902439024395,
  "aqi": 0.004096198475609755,
  "bids_meta": {
    "AcquisitionMatrixPE": 96,
    "AcquisitionNumber": 1,
    "AcquisitionTime": "18:58:19.750000",
    "BandwidthPerPixelPhaseEncode": 52.083,
    "BaseResolution": 96,
    "BodyPartExamined": "HEAD",
    "ConversionSoftware": "dcm2niix",
    "ConversionSoftwareVersion": "v1.0.20180622 GCC6.3.0",
    "DerivedVendorReportedEchoSpacing": 0.000600004,
    "DeviceSerialNumber": "18926",
    "DwellTime": 2.6e-06,
    "EchoTime": 0.025,
    "EffectiveEchoSpacing": 0.000200001,
    "FlipAngle": 50,
    "ImageOrientationPatientDICOM": [
      0.999992,
      0.00100659,
      0.00397877,
      1.98401e-10,
      0.969457,
      -0.245262
    ],
    "ImageType": [
      "ORIGINAL",
      "PRIMARY",
      "M",
      "ND",
      "ECHO",
      "00",
      "MOSAIC"
    ],
    "InPlanePhaseEncodingDirectionDICOM": "ROW",
    "InstitutionName": "NIMH",
    "InstitutionalDepartmentName": "Department",
    "MRAcquisitionType": "2D",
    "MagneticFieldStrength": 6.98,
    "Manufacturer": "Siemens",
    "ManufacturersModelName": "Investigational_Device_7T",
    "Modality": "MR",
    "ParallelReductionFactorInPlane": 3,
    "PartialFourier": 1,
    "PatientPosition": "HFS",
    "PercentPhaseFOV": 100,
    "PhaseEncodingDirection": "i",
    "PhaseEncodingSteps": 94,
    "PhaseResolution": 1,
    "PixelBandwidth": 2003,
    "ProcedureStepDescription": "MRI_Procedure_Limited",
    "ProtocolName": "NIH_EPI_2.0iso_TR2_Run11",
    "PulseSequenceDetails": "%CustomerSeq%_inati_nih_epi",
    "ReceiveCoilName": "32Ch_Head_7T",
    "ReconMatrixPE": 96,
    "RepetitionTime": 2,
    "SAR": 0.0804994,
    "ScanningSequence": "EP",
    "SequenceName": "epfid2d1_96",
    "SequenceVariant": "SK",
    "SeriesDescription": "NIH_EPI_2.0iso_TR2_Run11",
    "SeriesNumber": 16,
    "ShimSetting": [
      -39,
      169,
      894,
      1298,
      -62,
      494,
      -26,
      -417
    ],
    "SliceThickness": 2,
    "SliceTiming": [
      1.005,
      0,
      1.04,
      0.0375,
      1.0775,
      0.075,
      1.115,
      0.1125,
      1.1525,
      0.15,
      1.19,
      0.185,
      1.2275,
      0.2225,
      1.265,
      0.26,
      1.3025,
      0.2975,
      1.3375,
      0.335,
      1.375,
      0.3725,
      1.4125,
      0.41,
      1.45,
      0.4475,
      1.4875,
      0.4825,
      1.525,
      0.52,
      1.5625,
      0.5575,
      1.6,
      0.595,
      1.635,
      0.6325,
      1.6725,
      0.67,
      1.71,
      0.7075,
      1.7475,
      0.7425,
      1.785,
      0.78,
      1.8225,
      0.8175,
      1.86,
      0.855,
      1.8975,
      0.8925,
      1.9325,
      0.93,
      1.97,
      0.9675
    ],
    "SoftwareVersions": "syngo_MR_B17",
    "SpacingBetweenSlices": 2,
    "StationName": "FMRIFD7T",
    "TaskName": "HalfFovNoTask",
    "TotalReadoutTime": 0.0190001,
    "TxRefAmp": 322,
    "dataset": "ds001555",
    "dcmmeta_affine": [
      [
        -1.9999831914901733,
        3.9680239649619864e-10,
        0.008208253420889378,
        95.76705169677734
      ],
      [
        -0.0020131703931838274,
        1.9389138221740723,
        -0.4905194342136383,
        -52.40839767456055
      ],
      [
        0.007957547903060913,
        0.4905235469341278,
        1.9388974905014038,
        -48.362403869628906
      ],
      [
        0.0,
        0.0,
        0.0,
        1.0
      ]
    ],
    "dcmmeta_reorient_transform": [
      [
        0.0,
        -1.0,
        0.0,
        95.0
      ],
      [
        1.0,
        0.0,
        0.0,
        0.0
      ],
      [
        0.0,
        0.0,
        1.0,
        0.0
      ],
      [
        0.0,
        0.0,
        0.0,
        1.0
      ]
    ],
    "dcmmeta_shape": [
      96,
      96,
      54,
      164
    ],
    "dcmmeta_slice_dim": 2,
    "dcmmeta_version": 0.6,
    "global": {
      "const": {
        "AcquisitionMatrix": [
          0,
          96,
          96,
          0
        ],
        "Allergies": "No Known Allergies",
        "AngioFlag": "N",
        "BitsAllocated": 16,
        "BitsStored": 12,
        "BodyPartExamined": "HEAD",
        "Columns": 768,
        "EchoNumbers": 1,
        "EchoTime": 25.0,
        "EchoTrainLength": 1,
        "FlipAngle": 50.0,
        "HighBit": 11,
        "ImageOrientationPatient": [
          0.99999157803706,
          0.00100658515696,
          0.00397877384048,
          1.984012e-10,
          0.96945689128577,
          -0.2452617702344
        ],
        "ImagePositionPatient": [
          -767.76139276565,
          -783.93986653399,
          160.37950466745
        ],
        "ImageType": [
          "ORIGINAL",
          "PRIMARY",
          "M",
          "ND",
          "ECHO_00",
          "MOSAIC"
        ],
        "ImagedNucleus": "1H",
        "ImagingFrequency": 297.205024,
        "InPlanePhaseEncodingDirection": "ROW",
        "LargestImagePixelValue": 4095,
        "MRAcquisitionType": "2D",
        "MagneticFieldStrength": 6.98,
        "Manufacturer": "SIEMENS",
        "ManufacturerModelName": "Investigational_Device_7T",
        "Modality": "MR",
        "NumberOfAverages": 1.0,
        "NumberOfPhaseEncodingSteps": 94,
        "PercentPhaseFieldOfView": 100.0,
        "PercentSampling": 100.0,
        "PerformedProcedureStepStartTime": "172727.468000",
        "PhotometricInterpretation": "MONOCHROME2",
        "PixelBandwidth": 2003.0,
        "PixelRepresentation": 0,
        "PixelSpacing": [
          2.0,
          2.0
        ],
        "PositionReferenceIndicator": "",
        "ProcedureCodeSequence": [
          {
            "CodeMeaning": "MRI Procedure Limited",
            "CodeValue": "MI01491",
            "CodingSchemeDesignator": "USA Standard",
            "ContextIdentifier": "4000120229"
          }
        ],
        "ProtocolName": "NIH_EPI_2.0iso_TR2_Run11",
        "ReferencedStudySequence": [
          {
            "ReferencedSOPClassUID": "1.2.840.10008.3.1.2.3.1",
            "ReferencedSOPInstanceUID": "1.2.840.113564.9.1.2723958737.61.2.5000086040"
          }
        ],
        "RepetitionTime": 2000.0,
        "RequestedProcedureCodeSequence": [
          {
            "CodeMeaning": "MRI Procedure Limited",
            "CodeValue": "MI01491",
            "CodingSchemeDesignator": "USA Standard",
            "ContextIdentifier": "4000120229"
          }
        ],
        "RequestingService": "NIHM Molecular Imaging Branch",
        "Rows": 768,
        "SAR": 0.080499376312,
        "SamplesPerPixel": 1,
        "ScanningSequence": "EP",
        "SequenceName": "epfid2d1_96",
        "SequenceVariant": "SK",
        "SeriesDescription": "NIH_EPI_2.0iso_TR2_Run11",
        "SeriesNumber": 16,
        "SliceLocation": -33.63816362769,
        "SliceThickness": 2.0,
        "SmallestImagePixelValue": 0,
        "SoftwareVersions": "syngo MR B17",
        "SpacingBetweenSlices": 2.0000000574333,
        "TransmitCoilName": "32Ch_Head_7T",
        "VariableFlipAngleFlag": "N",
        "WindowCenterWidthExplanation": "Algo1",
        "dBdt": 0.0
      },
      "slices": {}
    },
    "modality": "bold",
    "run_id": 13,
    "session_id": "09",
    "subject_id": "001",
    "task_id": "HalfFovNoTask",
    "time": {
      "samples": {
        "AcquisitionNumber": [
          1,
          2,
          3,
          4,
          5,
          6,
          7,
          8,
          9,
          10,
          11,
          12,
          13,
          14,
          15,
          16,
          17,
          18,
          19,
          20,
          21,
          22,
          23,
          24,
          25,
          26,
          27,
          28,
          29,
          30,
          31,
          32,
          33,
          34,
          35,
          36,
          37,
          38,
          39,
          40,
          41,
          42,
          43,
          44,
          45,
          46,
          47,
          48,
          49,
          50,
          51,
          52,
          53,
          54,
          55,
          56,
          57,
          58,
          59,
          60,
          61,
          62,
          63,
          64,
          65,
          66,
          67,
          68,
          69,
          70,
          71,
          72,
          73,
          74,
          75,
          76,
          77,
          78,
          79,
          80,
          81,
          82,
          83,
          84,
          85,
          86,
          87,
          88,
          89,
          90,
          91,
          92,
          93,
          94,
          95,
          96,
          97,
          98,
          99,
          100,
          101,
          102,
          103,
          104,
          105,
          106,
          107,
          108,
          109,
          110,
          111,
          112,
          113,
          114,
          115,
          116,
          117,
          118,
          119,
          120,
          121,
          122,
          123,
          124,
          125,
          126,
          127,
          128,
          129,
          130,
          131,
          132,
          133,
          134,
          135,
          136,
          137,
          138,
          139,
          140,
          141,
          142,
          143,
          144,
          145,
          146,
          147,
          148,
          149,
          150,
          151,
          152,
          153,
          154,
          155,
          156,
          157,
          158,
          159,
          160,
          161,
          162,
          163,
          164
        ],
        "AcquisitionTime": [
          "185819.750000",
          "185823.765000",
          "185825.772500",
          "185827.780000",
          "185829.790000",
          "185831.797500",
          "185833.805000",
          "185835.812500",
          "185837.822500",
          "185839.830000",
          "185841.837500",
          "185843.845000",
          "185845.852500",
          "185847.862500",
          "185849.870000",
          "185851.877500",
          "185853.885000",
          "185855.892500",
          "185857.902500",
          "185859.910000",
          "185901.917500",
          "185903.925000",
          "185905.932500",
          "185907.942500",
          "185909.950000",
          "185911.957500",
          "185913.965000",
          "185915.975000",
          "185917.982500",
          "185919.990000",
          "185921.997500",
          "185924.005000",
          "185926.015000",
          "185928.022500",
          "185930.030000",
          "185932.037500",
          "185934.045000",
          "185936.055000",
          "185938.062500",
          "185940.070000",
          "185942.077500",
          "185944.087500",
          "185946.095000",
          "185948.102500",
          "185950.110000",
          "185952.117500",
          "185954.127500",
          "185956.135000",
          "185958.142500",
          "190000.150000",
          "190002.157500",
          "190004.167500",
          "190006.175000",
          "190008.182500",
          "190010.190000",
          "190012.200000",
          "190014.207500",
          "190016.215000",
          "190018.222500",
          "190020.230000",
          "190022.240000",
          "190024.247500",
          "190026.255000",
          "190028.262500",
          "190030.270000",
          "190032.280000",
          "190034.287500",
          "190036.295000",
          "190038.302500",
          "190040.310000",
          "190042.320000",
          "190044.327500",
          "190046.335000",
          "190048.342500",
          "190050.352500",
          "190052.360000",
          "190054.367500",
          "190056.375000",
          "190058.382500",
          "190100.392500",
          "190102.400000",
          "190104.407500",
          "190106.415000",
          "190108.422500",
          "190110.432500",
          "190112.440000",
          "190114.447500",
          "190116.455000",
          "190118.465000",
          "190120.472500",
          "190122.480000",
          "190124.487500",
          "190126.495000",
          "190128.505000",
          "190130.512500",
          "190132.520000",
          "190134.527500",
          "190136.535000",
          "190138.545000",
          "190140.552500",
          "190142.560000",
          "190144.567500",
          "190146.577500",
          "190148.585000",
          "190150.592500",
          "190152.600000",
          "190154.607500",
          "190156.617500",
          "190158.625000",
          "190200.632500",
          "190202.640000",
          "190204.647500",
          "190206.657500",
          "190208.665000",
          "190210.672500",
          "190212.680000",
          "190214.687500",
          "190216.697500",
          "190218.705000",
          "190220.712500",
          "190222.720000",
          "190224.730000",
          "190226.737500",
          "190228.745000",
          "190230.752500",
          "190232.760000",
          "190234.770000",
          "190236.777500",
          "190238.785000",
          "190240.792500",
          "190242.800000",
          "190244.810000",
          "190246.817500",
          "190248.825000",
          "190250.832500",
          "190252.842500",
          "190254.850000",
          "190256.857500",
          "190258.865000",
          "190300.872500",
          "190302.882500",
          "190304.890000",
          "190306.897500",
          "190308.905000",
          "190310.912500",
          "190312.922500",
          "190314.930000",
          "190316.937500",
          "190318.945000",
          "190320.955000",
          "190322.962500",
          "190324.970000",
          "190326.977500",
          "190328.985000",
          "190330.995000",
          "190333.002500",
          "190335.010000",
          "190337.017500",
          "190339.025000",
          "190341.035000",
          "190343.042500",
          "190345.050000",
          "190347.057500",
          "190349.065000"
        ],
        "ContentTime": [
          "185910.203000",
          "185910.203000",
          "185910.203000",
          "185910.203000",
          "185910.203000",
          "185910.218000",
          "185910.234000",
          "185910.234000",
          "185910.234000",
          "185910.234000",
          "185910.234000",
          "185910.234000",
          "185910.234000",
          "185910.250000",
          "185910.250000",
          "185910.250000",
          "185910.250000",
          "185910.250000",
          "185910.265000",
          "185910.265000",
          "185910.265000",
          "185910.265000",
          "185910.265000",
          "185910.265000",
          "185950.187000",
          "185950.187000",
          "185950.203000",
          "185950.203000",
          "185950.203000",
          "185950.203000",
          "185950.203000",
          "185950.203000",
          "185950.218000",
          "185950.218000",
          "185950.218000",
          "185950.218000",
          "185950.218000",
          "185950.234000",
          "185950.234000",
          "185950.234000",
          "185950.234000",
          "185950.234000",
          "185950.234000",
          "185950.250000",
          "190030.187000",
          "190030.187000",
          "190030.187000",
          "190030.203000",
          "190030.203000",
          "190030.203000",
          "190030.203000",
          "190030.203000",
          "190030.203000",
          "190030.203000",
          "190030.218000",
          "190030.218000",
          "190030.218000",
          "190030.218000",
          "190030.218000",
          "190030.218000",
          "190030.234000",
          "190030.234000",
          "190030.234000",
          "190030.234000",
          "190110.187000",
          "190110.203000",
          "190110.203000",
          "190110.203000",
          "190110.218000",
          "190110.218000",
          "190110.218000",
          "190110.218000",
          "190110.218000",
          "190110.218000",
          "190110.218000",
          "190110.234000",
          "190110.234000",
          "190110.234000",
          "190110.234000",
          "190110.250000",
          "190110.250000",
          "190110.250000",
          "190110.250000",
          "190110.250000",
          "190150.187000",
          "190150.187000",
          "190150.203000",
          "190150.203000",
          "190150.203000",
          "190150.203000",
          "190150.203000",
          "190150.203000",
          "190150.218000",
          "190150.218000",
          "190150.218000",
          "190150.218000",
          "190150.218000",
          "190150.218000",
          "190150.218000",
          "190150.234000",
          "190150.234000",
          "190150.234000",
          "190150.234000",
          "190150.234000",
          "190230.187000",
          "190230.203000",
          "190230.203000",
          "190230.203000",
          "190230.203000",
          "190230.203000",
          "190230.203000",
          "190230.203000",
          "190230.218000",
          "190230.218000",
          "190230.218000",
          "190230.218000",
          "190230.218000",
          "190230.218000",
          "190230.234000",
          "190230.234000",
          "190230.234000",
          "190230.234000",
          "190230.234000",
          "190230.234000",
          "190310.187000",
          "190310.187000",
          "190310.203000",
          "190310.203000",
          "190310.203000",
          "190310.203000",
          "190310.203000",
          "190310.218000",
          "190310.218000",
          "190310.218000",
          "190310.218000",
          "190310.218000",
          "190310.218000",
          "190310.234000",
          "190310.234000",
          "190310.234000",
          "190310.234000",
          "190310.234000",
          "190310.250000",
          "190310.250000",
          "190349.328000",
          "190349.328000",
          "190349.328000",
          "190349.328000",
          "190349.343000",
          "190349.343000",
          "190349.343000",
          "190349.343000",
          "190349.359000",
          "190349.359000",
          "190349.359000",
          "190349.359000",
          "190349.359000",
          "190349.359000",
          "190349.375000",
          "190349.375000",
          "190349.375000",
          "190349.375000",
          "190349.375000",
          "190349.390000"
        ],
        "InstanceCreationTime": [
          "185910.203000",
          "185910.203000",
          "185910.203000",
          "185910.203000",
          "185910.203000",
          "185910.218000",
          "185910.234000",
          "185910.234000",
          "185910.234000",
          "185910.234000",
          "185910.234000",
          "185910.234000",
          "185910.234000",
          "185910.250000",
          "185910.250000",
          "185910.250000",
          "185910.250000",
          "185910.250000",
          "185910.265000",
          "185910.265000",
          "185910.265000",
          "185910.265000",
          "185910.265000",
          "185910.265000",
          "185950.187000",
          "185950.187000",
          "185950.203000",
          "185950.203000",
          "185950.203000",
          "185950.203000",
          "185950.203000",
          "185950.203000",
          "185950.218000",
          "185950.218000",
          "185950.218000",
          "185950.218000",
          "185950.218000",
          "185950.234000",
          "185950.234000",
          "185950.234000",
          "185950.234000",
          "185950.234000",
          "185950.234000",
          "185950.250000",
          "190030.187000",
          "190030.187000",
          "190030.187000",
          "190030.203000",
          "190030.203000",
          "190030.203000",
          "190030.203000",
          "190030.203000",
          "190030.203000",
          "190030.203000",
          "190030.218000",
          "190030.218000",
          "190030.218000",
          "190030.218000",
          "190030.218000",
          "190030.218000",
          "190030.234000",
          "190030.234000",
          "190030.234000",
          "190030.234000",
          "190110.187000",
          "190110.203000",
          "190110.203000",
          "190110.203000",
          "190110.218000",
          "190110.218000",
          "190110.218000",
          "190110.218000",
          "190110.218000",
          "190110.218000",
          "190110.218000",
          "190110.234000",
          "190110.234000",
          "190110.234000",
          "190110.234000",
          "190110.250000",
          "190110.250000",
          "190110.250000",
          "190110.250000",
          "190110.250000",
          "190150.187000",
          "190150.187000",
          "190150.203000",
          "190150.203000",
          "190150.203000",
          "190150.203000",
          "190150.203000",
          "190150.203000",
          "190150.218000",
          "190150.218000",
          "190150.218000",
          "190150.218000",
          "190150.218000",
          "190150.218000",
          "190150.218000",
          "190150.234000",
          "190150.234000",
          "190150.234000",
          "190150.234000",
          "190150.234000",
          "190230.187000",
          "190230.203000",
          "190230.203000",
          "190230.203000",
          "190230.203000",
          "190230.203000",
          "190230.203000",
          "190230.203000",
          "190230.218000",
          "190230.218000",
          "190230.218000",
          "190230.218000",
          "190230.218000",
          "190230.218000",
          "190230.234000",
          "190230.234000",
          "190230.234000",
          "190230.234000",
          "190230.234000",
          "190230.234000",
          "190310.187000",
          "190310.187000",
          "190310.203000",
          "190310.203000",
          "190310.203000",
          "190310.203000",
          "190310.203000",
          "190310.218000",
          "190310.218000",
          "190310.218000",
          "190310.218000",
          "190310.218000",
          "190310.218000",
          "190310.234000",
          "190310.234000",
          "190310.234000",
          "190310.234000",
          "190310.234000",
          "190310.250000",
          "190310.250000",
          "190349.328000",
          "190349.328000",
          "190349.328000",
          "190349.328000",
          "190349.343000",
          "190349.343000",
          "190349.343000",
          "190349.343000",
          "190349.359000",
          "190349.359000",
          "190349.359000",
          "190349.359000",
          "190349.359000",
          "190349.359000",
          "190349.375000",
          "190349.375000",
          "190349.375000",
          "190349.375000",
          "190349.375000",
          "190349.390000"
        ],
        "InstanceNumber": [
          1,
          2,
          3,
          4,
          5,
          6,
          7,
          8,
          9,
          10,
          11,
          12,
          13,
          14,
          15,
          16,
          17,
          18,
          19,
          20,
          21,
          22,
          23,
          24,
          25,
          26,
          27,
          28,
          29,
          30,
          31,
          32,
          33,
          34,
          35,
          36,
          37,
          38,
          39,
          40,
          41,
          42,
          43,
          44,
          45,
          46,
          47,
          48,
          49,
          50,
          51,
          52,
          53,
          54,
          55,
          56,
          57,
          58,
          59,
          60,
          61,
          62,
          63,
          64,
          65,
          66,
          67,
          68,
          69,
          70,
          71,
          72,
          73,
          74,
          75,
          76,
          77,
          78,
          79,
          80,
          81,
          82,
          83,
          84,
          85,
          86,
          87,
          88,
          89,
          90,
          91,
          92,
          93,
          94,
          95,
          96,
          97,
          98,
          99,
          100,
          101,
          102,
          103,
          104,
          105,
          106,
          107,
          108,
          109,
          110,
          111,
          112,
          113,
          114,
          115,
          116,
          117,
          118,
          119,
          120,
          121,
          122,
          123,
          124,
          125,
          126,
          127,
          128,
          129,
          130,
          131,
          132,
          133,
          134,
          135,
          136,
          137,
          138,
          139,
          140,
          141,
          142,
          143,
          144,
          145,
          146,
          147,
          148,
          149,
          150,
          151,
          152,
          153,
          154,
          155,
          156,
          157,
          158,
          159,
          160,
          161,
          162,
          163,
          164
        ],
        "WindowCenter": [
          1236.0,
          1235.0,
          1236.0,
          1237.0,
          1236.0,
          1236.0,
          1238.0,
          1239.0,
          1240.0,
          1241.0,
          1239.0,
          1238.0,
          1238.0,
          1237.0,
          1238.0,
          1238.0,
          1236.0,
          1235.0,
          1234.0,
          1234.0,
          1236.0,
          1238.0,
          1238.0,
          1236.0,
          1235.0,
          1234.0,
          1235.0,
          1237.0,
          1240.0,
          1242.0,
          1243.0,
          1241.0,
          1238.0,
          1236.0,
          1237.0,
          1239.0,
          1240.0,
          1240.0,
          1237.0,
          1233.0,
          1232.0,
          1234.0,
          1237.0,
          1240.0,
          1239.0,
          1238.0,
          1239.0,
          1239.0,
          1241.0,
          1242.0,
          1241.0,
          1241.0,
          1239.0,
          1239.0,
          1240.0,
          1241.0,
          1240.0,
          1238.0,
          1237.0,
          1238.0,
          1237.0,
          1236.0,
          1236.0,
          1236.0,
          1238.0,
          1239.0,
          1239.0,
          1240.0,
          1238.0,
          1237.0,
          1238.0,
          1239.0,
          1242.0,
          1243.0,
          1240.0,
          1237.0,
          1237.0,
          1237.0,
          1235.0,
          1236.0,
          1236.0,
          1237.0,
          1238.0,
          1236.0,
          1236.0,
          1236.0,
          1236.0,
          1236.0,
          1236.0,
          1235.0,
          1237.0,
          1240.0,
          1244.0,
          1244.0,
          1240.0,
          1238.0,
          1240.0,
          1242.0,
          1240.0,
          1239.0,
          1237.0,
          1237.0,
          1238.0,
          1239.0,
          1239.0,
          1238.0,
          1240.0,
          1239.0,
          1237.0,
          1237.0,
          1237.0,
          1239.0,
          1240.0,
          1240.0,
          1239.0,
          1240.0,
          1244.0,
          1241.0,
          1238.0,
          1236.0,
          1236.0,
          1239.0,
          1240.0,
          1239.0,
          1237.0,
          1236.0,
          1238.0,
          1240.0,
          1239.0,
          1238.0,
          1238.0,
          1239.0,
          1239.0,
          1239.0,
          1238.0,
          1237.0,
          1236.0,
          1237.0,
          1239.0,
          1240.0,
          1240.0,
          1237.0,
          1237.0,
          1239.0,
          1240.0,
          1239.0,
          1242.0,
          1242.0,
          1243.0,
          1240.0,
          1240.0,
          1240.0,
          1241.0,
          1239.0,
          1240.0,
          1240.0,
          1241.0,
          1239.0,
          1236.0,
          1237.0,
          1237.0,
          1234.0,
          1233.0,
          1234.0
        ],
        "WindowWidth": [
          2944.0,
          2941.0,
          2941.0,
          2943.0,
          2941.0,
          2940.0,
          2945.0,
          2950.0,
          2951.0,
          2948.0,
          2948.0,
          2946.0,
          2944.0,
          2944.0,
          2942.0,
          2942.0,
          2942.0,
          2938.0,
          2937.0,
          2941.0,
          2945.0,
          2949.0,
          2947.0,
          2941.0,
          2940.0,
          2936.0,
          2938.0,
          2945.0,
          2951.0,
          2957.0,
          2957.0,
          2951.0,
          2946.0,
          2947.0,
          2945.0,
          2948.0,
          2951.0,
          2949.0,
          2940.0,
          2932.0,
          2931.0,
          2939.0,
          2945.0,
          2948.0,
          2948.0,
          2946.0,
          2948.0,
          2950.0,
          2952.0,
          2955.0,
          2954.0,
          2950.0,
          2948.0,
          2948.0,
          2952.0,
          2952.0,
          2948.0,
          2947.0,
          2946.0,
          2946.0,
          2944.0,
          2941.0,
          2940.0,
          2942.0,
          2945.0,
          2948.0,
          2950.0,
          2950.0,
          2945.0,
          2942.0,
          2944.0,
          2950.0,
          2957.0,
          2956.0,
          2951.0,
          2947.0,
          2945.0,
          2944.0,
          2942.0,
          2943.0,
          2946.0,
          2949.0,
