{
  "aor": 0.002277073170731707,
  "aqi": 0.006453333780487805,
  "bids_meta": {
    "AcquisitionMatrixPE": 96,
    "AcquisitionNumber": 1,
    "AcquisitionTime": "18:41:48.080000",
    "BandwidthPerPixelPhaseEncode": 52.083,
    "BaseResolution": 96,
    "BodyPartExamined": "HEAD",
    "ConversionSoftware": "dcm2niix",
    "ConversionSoftwareVersion": "v1.0.20180622 GCC6.3.0",
    "DerivedVendorReportedEchoSpacing": 0.000600004,
    "DeviceSerialNumber": "18926",
    "DwellTime": 2.6e-06,
    "EchoTime": 0.025,
    "EffectiveEchoSpacing": 0.000200001,
    "FlipAngle": 50,
    "ImageOrientationPatientDICOM": [
      0.999992,
      0.00106204,
      0.00396433,
      2.0017e-10,
      0.965938,
      -0.258774
    ],
    "ImageType": [
      "ORIGINAL",
      "PRIMARY",
      "M",
      "ND",
      "ECHO",
      "00",
      "MOSAIC"
    ],
    "InPlanePhaseEncodingDirectionDICOM": "ROW",
    "InstitutionName": "NIMH",
    "InstitutionalDepartmentName": "Department",
    "MRAcquisitionType": "2D",
    "MagneticFieldStrength": 6.98,
    "Manufacturer": "Siemens",
    "ManufacturersModelName": "Investigational_Device_7T",
    "Modality": "MR",
    "ParallelReductionFactorInPlane": 3,
    "PartialFourier": 1,
    "PatientPosition": "HFS",
    "PercentPhaseFOV": 100,
    "PhaseEncodingDirection": "i",
    "PhaseEncodingSteps": 94,
    "PhaseResolution": 1,
    "PixelBandwidth": 2003,
    "ProcedureStepDescription": "MRI_Procedure_Limited",
    "ProtocolName": "NIH_EPI_2.0iso_TR2_Run04",
    "PulseSequenceDetails": "%CustomerSeq%_inati_nih_epi",
    "ReceiveCoilName": "32Ch_Head_7T",
    "ReconMatrixPE": 96,
    "RepetitionTime": 2,
    "SAR": 0.0802965,
    "ScanningSequence": "EP",
    "SequenceName": "epfid2d1_96",
    "SequenceVariant": "SK",
    "SeriesDescription": "NIH_EPI_2.0iso_TR2_Run04",
    "SeriesNumber": 8,
    "ShimSetting": [
      -68,
      215,
      840,
      1199,
      -267,
      642,
      92,
      -480
    ],
    "SliceThickness": 2,
    "SliceTiming": [
      1.005,
      0,
      1.0425,
      0.0375,
      1.08,
      0.075,
      1.115,
      0.1125,
      1.1525,
      0.15,
      1.19,
      0.1875,
      1.2275,
      0.225,
      1.265,
      0.26,
      1.3025,
      0.2975,
      1.34,
      0.335,
      1.3775,
      0.3725,
      1.4125,
      0.41,
      1.45,
      0.4475,
      1.4875,
      0.485,
      1.525,
      0.5225,
      1.5625,
      0.5575,
      1.6,
      0.595,
      1.6375,
      0.6325,
      1.675,
      0.67,
      1.71,
      0.7075,
      1.7475,
      0.745,
      1.785,
      0.7825,
      1.8225,
      0.8175,
      1.86,
      0.855,
      1.8975,
      0.8925,
      1.935,
      0.93,
      1.9725,
      0.9675
    ],
    "SoftwareVersions": "syngo_MR_B17",
    "SpacingBetweenSlices": 2,
    "StationName": "FMRIFD7T",
    "TaskName": "HalfFovNoTask",
    "TotalReadoutTime": 0.0190001,
    "TxRefAmp": 321,
    "dataset": "ds001555",
    "dcmmeta_affine": [
      [
        -1.9999831914901733,
        4.0034059400895217e-10,
        0.008208253420889378,
        95.76705169677734
      ],
      [
        -0.002124078804627061,
        1.9318759441375732,
        -0.517542839050293,
        -54.059513092041016
      ],
      [
        0.007928663864731789,
        0.5175471901893616,
        1.9318597316741943,
        -55.51789474487305
      ],
      [
        0.0,
        0.0,
        0.0,
        1.0
      ]
    ],
    "dcmmeta_reorient_transform": [
      [
        0.0,
        -1.0,
        0.0,
        95.0
      ],
      [
        1.0,
        0.0,
        0.0,
        0.0
      ],
      [
        0.0,
        0.0,
        1.0,
        0.0
      ],
      [
        0.0,
        0.0,
        0.0,
        1.0
      ]
    ],
    "dcmmeta_shape": [
      96,
      96,
      54,
      164
    ],
    "dcmmeta_slice_dim": 2,
    "dcmmeta_version": 0.6,
    "global": {
      "const": {
        "AcquisitionMatrix": [
          0,
          96,
          96,
          0
        ],
        "Allergies": "No Known Allergies",
        "AngioFlag": "N",
        "BitsAllocated": 16,
        "BitsStored": 12,
        "BodyPartExamined": "HEAD",
        "Columns": 768,
        "EchoNumbers": 1,
        "EchoTime": 25.0,
        "EchoTrainLength": 1,
        "FlipAngle": 50.0,
        "HighBit": 11,
        "ImageOrientationPatient": [
          0.99999157803723,
          0.00106203942406,
          0.00396433183257,
          2.001703e-10,
          0.96593800087893,
          -0.2587736046393
        ],
        "ImagePositionPatient": [
          -767.76139276714,
          -779.29273444391,
          164.88092233343
        ],
        "ImageType": [
          "ORIGINAL",
          "PRIMARY",
          "M",
          "ND",
          "ECHO_00",
          "MOSAIC"
        ],
        "ImagedNucleus": "1H",
        "ImagingFrequency": 297.204877,
        "InPlanePhaseEncodingDirection": "ROW",
        "LargestImagePixelValue": 4095,
        "MRAcquisitionType": "2D",
        "MagneticFieldStrength": 6.98,
        "Manufacturer": "SIEMENS",
        "ManufacturerModelName": "Investigational_Device_7T",
        "Modality": "MR",
        "NumberOfAverages": 1.0,
        "NumberOfPhaseEncodingSteps": 94,
        "PercentPhaseFieldOfView": 100.0,
        "PercentSampling": 100.0,
        "PerformedProcedureStepStartTime": "180307.448000",
        "PhotometricInterpretation": "MONOCHROME2",
        "PixelBandwidth": 2003.0,
        "PixelRepresentation": 0,
        "PixelSpacing": [
          2.0,
          2.0
        ],
        "PositionReferenceIndicator": "",
        "ProcedureCodeSequence": [
          {
            "CodeMeaning": "MRI Procedure Limited",
            "CodeValue": "MI01491",
            "CodingSchemeDesignator": "USA Standard",
            "ContextIdentifier": "4000127006"
          }
        ],
        "ProtocolName": "NIH_EPI_2.0iso_TR2_Run04",
        "ReferencedStudySequence": [
          {
            "ReferencedSOPClassUID": "1.2.840.10008.3.1.2.3.1",
            "ReferencedSOPInstanceUID": "1.2.840.113564.9.1.2787814059.53.2.5000092844"
          }
        ],
        "RepetitionTime": 2000.0,
        "RequestedProcedureCodeSequence": [
          {
            "CodeMeaning": "MRI Procedure Limited",
            "CodeValue": "MI01491",
            "CodingSchemeDesignator": "USA Standard",
            "ContextIdentifier": "4000127006"
          }
        ],
        "RequestingService": "NIHM Molecular Imaging Branch",
        "Rows": 768,
        "SAR": 0.08029645587828,
        "SamplesPerPixel": 1,
        "ScanningSequence": "EP",
        "SequenceName": "epfid2d1_96",
        "SequenceVariant": "SK",
        "SeriesDescription": "NIH_EPI_2.0iso_TR2_Run04",
        "SeriesNumber": 8,
        "SliceLocation": -39.244294500806,
        "SliceThickness": 2.0,
        "SmallestImagePixelValue": 0,
        "SoftwareVersions": "syngo MR B17",
        "SpacingBetweenSlices": 1.9999999794435,
        "TransmitCoilName": "32Ch_Head_7T",
        "VariableFlipAngleFlag": "N",
        "WindowCenterWidthExplanation": "Algo1",
        "dBdt": 0.0
      },
      "slices": {}
    },
    "modality": "bold",
    "run_id": 5,
    "session_id": "10",
    "subject_id": "001",
    "task_id": "HalfFovNoTask",
    "time": {
      "samples": {
        "AcquisitionNumber": [
          1,
          2,
          3,
          4,
          5,
          6,
          7,
          8,
          9,
          10,
          11,
          12,
          13,
          14,
          15,
          16,
          17,
          18,
          19,
          20,
          21,
          22,
          23,
          24,
          25,
          26,
          27,
          28,
          29,
          30,
          31,
          32,
          33,
          34,
          35,
          36,
          37,
          38,
          39,
          40,
          41,
          42,
          43,
          44,
          45,
          46,
          47,
          48,
          49,
          50,
          51,
          52,
          53,
          54,
          55,
          56,
          57,
          58,
          59,
          60,
          61,
          62,
          63,
          64,
          65,
          66,
          67,
          68,
          69,
          70,
          71,
          72,
          73,
          74,
          75,
          76,
          77,
          78,
          79,
          80,
          81,
          82,
          83,
          84,
          85,
          86,
          87,
          88,
          89,
          90,
          91,
          92,
          93,
          94,
          95,
          96,
          97,
          98,
          99,
          100,
          101,
          102,
          103,
          104,
          105,
          106,
          107,
          108,
          109,
          110,
          111,
          112,
          113,
          114,
          115,
          116,
          117,
          118,
          119,
          120,
          121,
          122,
          123,
          124,
          125,
          126,
          127,
          128,
          129,
          130,
          131,
          132,
          133,
          134,
          135,
          136,
          137,
          138,
          139,
          140,
          141,
          142,
          143,
          144,
          145,
          146,
          147,
          148,
          149,
          150,
          151,
          152,
          153,
          154,
          155,
          156,
          157,
          158,
          159,
          160,
          161,
          162,
          163,
          164
        ],
        "AcquisitionTime": [
          "184148.080000",
          "184152.095000",
          "184154.102500",
          "184156.112500",
          "184158.120000",
          "184200.127500",
          "184202.135000",
          "184204.145000",
          "184206.152500",
          "184208.160000",
          "184210.167500",
          "184212.175000",
          "184214.185000",
          "184216.192500",
          "184218.200000",
          "184220.207500",
          "184222.215000",
          "184224.225000",
          "184226.232500",
          "184228.240000",
          "184230.247500",
          "184232.257500",
          "184234.265000",
          "184236.272500",
          "184238.280000",
          "184240.287500",
          "184242.297500",
          "184244.305000",
          "184246.312500",
          "184248.320000",
          "184250.327500",
          "184252.337500",
          "184254.345000",
          "184256.352500",
          "184258.360000",
          "184300.370000",
          "184302.377500",
          "184304.385000",
          "184306.392500",
          "184308.400000",
          "184310.410000",
          "184312.417500",
          "184314.425000",
          "184316.432500",
          "184318.440000",
          "184320.450000",
          "184322.457500",
          "184324.465000",
          "184326.472500",
          "184328.480000",
          "184330.490000",
          "184332.497500",
          "184334.505000",
          "184336.512500",
          "184338.522500",
          "184340.530000",
          "184342.537500",
          "184344.545000",
          "184346.552500",
          "184348.562500",
          "184350.570000",
          "184352.577500",
          "184354.585000",
          "184356.592500",
          "184358.602500",
          "184400.610000",
          "184402.617500",
          "184404.625000",
          "184406.635000",
          "184408.642500",
          "184410.650000",
          "184412.657500",
          "184414.665000",
          "184416.675000",
          "184418.682500",
          "184420.690000",
          "184422.697500",
          "184424.705000",
          "184426.715000",
          "184428.722500",
          "184430.730000",
          "184432.737500",
          "184434.747500",
          "184436.755000",
          "184438.762500",
          "184440.770000",
          "184442.777500",
          "184444.787500",
          "184446.795000",
          "184448.802500",
          "184450.810000",
          "184452.817500",
          "184454.827500",
          "184456.835000",
          "184458.842500",
          "184500.850000",
          "184502.857500",
          "184504.867500",
          "184506.875000",
          "184508.882500",
          "184510.890000",
          "184512.900000",
          "184514.907500",
          "184516.915000",
          "184518.922500",
          "184520.930000",
          "184522.940000",
          "184524.947500",
          "184526.955000",
          "184528.962500",
          "184530.970000",
          "184532.980000",
          "184534.987500",
          "184536.995000",
          "184539.002500",
          "184541.012500",
          "184543.020000",
          "184545.027500",
          "184547.035000",
          "184549.042500",
          "184551.052500",
          "184553.060000",
          "184555.067500",
          "184557.075000",
          "184559.082500",
          "184601.092500",
          "184603.100000",
          "184605.107500",
          "184607.115000",
          "184609.125000",
          "184611.132500",
          "184613.140000",
          "184615.147500",
          "184617.155000",
          "184619.165000",
          "184621.172500",
          "184623.180000",
          "184625.187500",
          "184627.195000",
          "184629.205000",
          "184631.212500",
          "184633.220000",
          "184635.227500",
          "184637.237500",
          "184639.245000",
          "184641.252500",
          "184643.260000",
          "184645.267500",
          "184647.277500",
          "184649.285000",
          "184651.292500",
          "184653.300000",
          "184655.307500",
          "184657.317500",
          "184659.325000",
          "184701.332500",
          "184703.340000",
          "184705.347500",
          "184707.357500",
          "184709.365000",
          "184711.372500",
          "184713.380000",
          "184715.390000",
          "184717.397500"
        ],
        "ContentTime": [
          "184240.135000",
          "184240.151000",
          "184240.151000",
          "184240.151000",
          "184240.151000",
          "184240.167000",
          "184240.167000",
          "184240.167000",
          "184240.167000",
          "184240.167000",
          "184240.167000",
          "184240.182000",
          "184240.182000",
          "184240.182000",
          "184240.182000",
          "184240.182000",
          "184240.182000",
          "184240.182000",
          "184240.198000",
          "184240.198000",
          "184240.198000",
          "184240.198000",
          "184240.198000",
          "184240.213000",
          "184320.120000",
          "184320.120000",
          "184320.120000",
          "184320.135000",
          "184320.135000",
          "184320.135000",
          "184320.135000",
          "184320.151000",
          "184320.151000",
          "184320.151000",
          "184320.151000",
          "184320.151000",
          "184320.151000",
          "184320.151000",
          "184320.167000",
          "184320.167000",
          "184320.167000",
          "184320.167000",
          "184320.182000",
          "184320.182000",
          "184400.120000",
          "184400.120000",
          "184400.120000",
          "184400.135000",
          "184400.135000",
          "184400.135000",
          "184400.135000",
          "184400.135000",
          "184400.135000",
          "184400.135000",
          "184400.151000",
          "184400.151000",
          "184400.151000",
          "184400.151000",
          "184400.167000",
          "184400.167000",
          "184400.167000",
          "184400.167000",
          "184400.167000",
          "184400.167000",
          "184440.120000",
          "184440.120000",
          "184440.120000",
          "184440.120000",
          "184440.135000",
          "184440.135000",
          "184440.135000",
          "184440.135000",
          "184440.135000",
          "184440.135000",
          "184440.135000",
          "184440.151000",
          "184440.151000",
          "184440.151000",
          "184440.151000",
          "184440.151000",
          "184440.151000",
          "184440.151000",
          "184440.167000",
          "184440.167000",
          "184520.120000",
          "184520.120000",
          "184520.120000",
          "184520.135000",
          "184520.135000",
          "184520.135000",
          "184520.135000",
          "184520.135000",
          "184520.135000",
          "184520.135000",
          "184520.151000",
          "184520.151000",
          "184520.151000",
          "184520.151000",
          "184520.151000",
          "184520.167000",
          "184520.167000",
          "184520.167000",
          "184520.182000",
          "184520.182000",
          "184600.120000",
          "184600.120000",
          "184600.120000",
          "184600.120000",
          "184600.135000",
          "184600.135000",
          "184600.135000",
          "184600.135000",
          "184600.135000",
          "184600.135000",
          "184600.135000",
          "184600.151000",
          "184600.151000",
          "184600.151000",
          "184600.151000",
          "184600.167000",
          "184600.167000",
          "184600.167000",
          "184600.167000",
          "184600.167000",
          "184620.120000",
          "184620.120000",
          "184620.120000",
          "184620.120000",
          "184620.120000",
          "184620.135000",
          "184620.135000",
          "184620.135000",
          "184620.135000",
          "184620.135000",
          "184700.120000",
          "184700.120000",
          "184700.120000",
          "184700.120000",
          "184700.120000",
          "184700.135000",
          "184700.135000",
          "184700.135000",
          "184700.135000",
          "184700.135000",
          "184700.135000",
          "184700.135000",
          "184700.151000",
          "184700.151000",
          "184700.151000",
          "184700.151000",
          "184700.151000",
          "184700.151000",
          "184700.167000",
          "184700.167000",
          "184718.307000",
          "184718.307000",
          "184718.323000",
          "184718.338000",
          "184718.338000",
          "184718.338000",
          "184718.354000",
          "184718.370000",
          "184718.370000",
          "184718.370000"
        ],
        "InstanceCreationTime": [
          "184240.135000",
          "184240.151000",
          "184240.151000",
          "184240.151000",
          "184240.151000",
          "184240.167000",
          "184240.167000",
          "184240.167000",
          "184240.167000",
          "184240.167000",
          "184240.167000",
          "184240.182000",
          "184240.182000",
          "184240.182000",
          "184240.182000",
          "184240.182000",
          "184240.182000",
          "184240.182000",
          "184240.198000",
          "184240.198000",
          "184240.198000",
          "184240.198000",
          "184240.198000",
          "184240.213000",
          "184320.120000",
          "184320.120000",
          "184320.120000",
          "184320.135000",
          "184320.135000",
          "184320.135000",
          "184320.135000",
          "184320.151000",
          "184320.151000",
          "184320.151000",
          "184320.151000",
          "184320.151000",
          "184320.151000",
          "184320.151000",
          "184320.167000",
          "184320.167000",
          "184320.167000",
          "184320.167000",
          "184320.182000",
          "184320.182000",
          "184400.120000",
          "184400.120000",
          "184400.120000",
          "184400.135000",
          "184400.135000",
          "184400.135000",
          "184400.135000",
          "184400.135000",
          "184400.135000",
          "184400.135000",
          "184400.151000",
          "184400.151000",
          "184400.151000",
          "184400.151000",
          "184400.167000",
          "184400.167000",
          "184400.167000",
          "184400.167000",
          "184400.167000",
          "184400.167000",
          "184440.120000",
          "184440.120000",
          "184440.120000",
          "184440.120000",
          "184440.135000",
          "184440.135000",
          "184440.135000",
          "184440.135000",
          "184440.135000",
          "184440.135000",
          "184440.135000",
          "184440.151000",
          "184440.151000",
          "184440.151000",
          "184440.151000",
          "184440.151000",
          "184440.151000",
          "184440.151000",
          "184440.167000",
          "184440.167000",
          "184520.120000",
          "184520.120000",
          "184520.120000",
          "184520.135000",
          "184520.135000",
          "184520.135000",
          "184520.135000",
          "184520.135000",
          "184520.135000",
          "184520.135000",
          "184520.151000",
          "184520.151000",
          "184520.151000",
          "184520.151000",
          "184520.151000",
          "184520.167000",
          "184520.167000",
          "184520.167000",
          "184520.182000",
          "184520.182000",
          "184600.120000",
          "184600.120000",
          "184600.120000",
          "184600.120000",
          "184600.135000",
          "184600.135000",
          "184600.135000",
          "184600.135000",
          "184600.135000",
          "184600.135000",
          "184600.135000",
          "184600.151000",
          "184600.151000",
          "184600.151000",
          "184600.151000",
          "184600.167000",
          "184600.167000",
          "184600.167000",
          "184600.167000",
          "184600.167000",
          "184620.120000",
          "184620.120000",
          "184620.120000",
          "184620.120000",
          "184620.120000",
          "184620.135000",
          "184620.135000",
          "184620.135000",
          "184620.135000",
          "184620.135000",
          "184700.120000",
          "184700.120000",
          "184700.120000",
          "184700.120000",
          "184700.120000",
          "184700.135000",
          "184700.135000",
          "184700.135000",
          "184700.135000",
          "184700.135000",
          "184700.135000",
          "184700.135000",
          "184700.151000",
          "184700.151000",
          "184700.151000",
          "184700.151000",
          "184700.151000",
          "184700.151000",
          "184700.167000",
          "184700.167000",
          "184718.307000",
          "184718.307000",
          "184718.323000",
          "184718.338000",
          "184718.338000",
          "184718.338000",
          "184718.354000",
          "184718.370000",
          "184718.370000",
          "184718.370000"
        ],
        "InstanceNumber": [
          1,
          2,
          3,
          4,
          5,
          6,
          7,
          8,
          9,
          10,
          11,
          12,
          13,
          14,
          15,
          16,
          17,
          18,
          19,
          20,
          21,
          22,
          23,
          24,
          25,
          26,
          27,
          28,
          29,
          30,
          31,
          32,
          33,
          34,
          35,
          36,
          37,
          38,
          39,
          40,
          41,
          42,
          43,
          44,
          45,
          46,
          47,
          48,
          49,
          50,
          51,
          52,
          53,
          54,
          55,
          56,
          57,
          58,
          59,
          60,
          61,
          62,
          63,
          64,
          65,
          66,
          67,
          68,
          69,
          70,
          71,
          72,
          73,
          74,
          75,
          76,
          77,
          78,
          79,
          80,
          81,
          82,
          83,
          84,
          85,
          86,
          87,
          88,
          89,
          90,
          91,
          92,
          93,
          94,
          95,
          96,
          97,
          98,
          99,
          100,
          101,
          102,
          103,
          104,
          105,
          106,
          107,
          108,
          109,
          110,
          111,
          112,
          113,
          114,
          115,
          116,
          117,
          118,
          119,
          120,
          121,
          122,
          123,
          124,
          125,
          126,
          127,
          128,
          129,
          130,
          131,
          132,
          133,
          134,
          135,
          136,
          137,
          138,
          139,
          140,
          141,
          142,
          143,
          144,
          145,
          146,
          147,
          148,
          149,
          150,
          151,
          152,
          153,
          154,
          155,
          156,
          157,
          158,
          159,
          160,
          161,
          162,
          163,
          164
        ],
        "WindowCenter": [
          1181.0,
          1180.0,
          1180.0,
          1180.0,
          1180.0,
          1181.0,
          1182.0,
          1184.0,
          1184.0,
          1183.0,
          1183.0,
          1186.0,
          1186.0,
          1185.0,
          1183.0,
          1182.0,
          1181.0,
          1182.0,
          1183.0,
          1183.0,
          1181.0,
          1182.0,
          1183.0,
          1180.0,
          1180.0,
          1178.0,
          1176.0,
          1174.0,
          1173.0,
          1174.0,
          1177.0,
          1179.0,
          1184.0,
          1187.0,
          1189.0,
          1188.0,
          1186.0,
          1185.0,
          1185.0,
          1184.0,
          1184.0,
          1183.0,
          1183.0,
          1185.0,
          1185.0,
          1185.0,
          1186.0,
          1185.0,
          1185.0,
          1186.0,
          1185.0,
          1188.0,
          1189.0,
          1187.0,
          1185.0,
          1184.0,
          1184.0,
          1184.0,
          1182.0,
          1182.0,
          1182.0,
          1181.0,
          1182.0,
          1181.0,
          1181.0,
          1182.0,
          1183.0,
          1182.0,
          1183.0,
          1183.0,
          1184.0,
          1184.0,
          1184.0,
          1185.0,
          1186.0,
          1186.0,
          1185.0,
          1184.0,
          1184.0,
          1182.0,
          1185.0,
          1185.0,
          1183.0,
          1181.0,
          1182.0,
          1183.0,
          1184.0,
          1184.0,
          1183.0,
          1184.0,
          1185.0,
          1187.0,
          1185.0,
          1184.0,
          1182.0,
          1183.0,
          1185.0,
          1186.0,
          1185.0,
          1183.0,
          1181.0,
          1182.0,
          1184.0,
          1183.0,
          1183.0,
          1186.0,
          1184.0,
          1184.0,
          1184.0,
          1182.0,
          1181.0,
          1181.0,
          1182.0,
          1183.0,
          1182.0,
          1182.0,
          1182.0,
          1182.0,
          1183.0,
          1182.0,
          1181.0,
          1181.0,
          1182.0,
          1185.0,
          1185.0,
          1183.0,
          1182.0,
          1182.0,
          1183.0,
          1185.0,
          1185.0,
          1184.0,
          1184.0,
          1184.0,
          1182.0,
          1182.0,
          1182.0,
          1182.0,
          1183.0,
          1182.0,
          1183.0,
          1184.0,
          1183.0,
          1183.0,
          1183.0,
          1185.0,
          1187.0,
          1186.0,
          1186.0,
          1186.0,
          1186.0,
          1187.0,
          1186.0,
          1185.0,
          1184.0,
          1185.0,
          1184.0,
          1186.0,
          1187.0,
          1185.0,
          1183.0,
          1181.0,
          1185.0,
          1188.0
        ],
        "WindowWidth": [
          2807.0,
          2804.0,
          2805.0,
          2804.0,
          2805.0,
          2809.0,
          2811.0,
          2815.0,
          2816.0,
          2812.0,
          2817.0,
          2824.0,
          2822.0,
          2816.0,
          2810.0,
          2810.0,
          2811.0,
          2812.0,
          2813.0,
          2812.0,
          2810.0,
          2813.0,
          2816.0,
          2805.0,
          2801.0,
          2799.0,
          2793.0,
          2788.0,
          2787.0,
          2791.0,
          2797.0,
          2805.0,
          2820.0,
          2827.0,
          2830.0,
          2829.0,
          2823.0,
          2820.0,
          2818.0,
          2815.0,
          2815.0,
          2813.0,
          2814.0,
          2819.0,
          2818.0,
          2820.0,
          2822.0,
          2819.0,
          2820.0,
          2825.0,
          2826.0,
          2829.0,
          2828.0,
          2820.0,
          2817.0,
          2815.0,
          2813.0,
          2813.0,
          2808.0,
          2807.0,
          2808.0,
          2806.0,
          2807.0,
          2805.0,
          2805.0,
          2807.0,
          2807.0,
          2807.0,
          2809.0,
          2811.0,
          2811.0,
          2814.0,
          2814.0,
          2816.0,
          2820.0,
          2818.0,
          2815.0,
          2812.0,
          2813.0,
          2813.0,
          2819.0,
          2818.0,
