{
  "aor": 0.002252378048780488,
  "aqi": 0.005077642317073171,
  "bids_meta": {
    "AcquisitionMatrixPE": 96,
    "AcquisitionNumber": 1,
    "AcquisitionTime": "19:25:43.455000",
    "BandwidthPerPixelPhaseEncode": 52.083,
    "BaseResolution": 96,
    "BodyPartExamined": "HEAD",
    "ConversionSoftware": "dcm2niix",
    "ConversionSoftwareVersion": "v1.0.20180622 GCC6.3.0",
    "DerivedVendorReportedEchoSpacing": 0.000600004,
    "DeviceSerialNumber": "18926",
    "DwellTime": 2.6e-06,
    "EchoTime": 0.025,
    "EffectiveEchoSpacing": 0.000200001,
    "FlipAngle": 50,
    "ImageOrientationPatientDICOM": [
      0.999992,
      0.00106204,
      0.00396433,
      2.0017e-10,
      0.965938,
      -0.258774
    ],
    "ImageType": [
      "ORIGINAL",
      "PRIMARY",
      "M",
      "ND",
      "ECHO",
      "00",
      "MOSAIC"
    ],
    "InPlanePhaseEncodingDirectionDICOM": "ROW",
    "InstitutionName": "NIMH",
    "InstitutionalDepartmentName": "Department",
    "MRAcquisitionType": "2D",
    "MagneticFieldStrength": 6.98,
    "Manufacturer": "Siemens",
    "ManufacturersModelName": "Investigational_Device_7T",
    "Modality": "MR",
    "ParallelReductionFactorInPlane": 3,
    "PartialFourier": 1,
    "PatientPosition": "HFS",
    "PercentPhaseFOV": 100,
    "PhaseEncodingDirection": "i",
    "PhaseEncodingSteps": 94,
    "PhaseResolution": 1,
    "PixelBandwidth": 2003,
    "ProcedureStepDescription": "MRI_Procedure_Limited",
    "ProtocolName": "NIH_EPI_2.0iso_TR2_Run10",
    "PulseSequenceDetails": "%CustomerSeq%_inati_nih_epi",
    "ReceiveCoilName": "32Ch_Head_7T",
    "ReconMatrixPE": 96,
    "RepetitionTime": 2,
    "SAR": 0.0802965,
    "ScanningSequence": "EP",
    "SequenceName": "epfid2d1_96",
    "SequenceVariant": "SK",
    "SeriesDescription": "NIH_EPI_2.0iso_TR2_Run10",
    "SeriesNumber": 14,
    "ShimSetting": [
      -68,
      215,
      840,
      1199,
      -267,
      642,
      92,
      -480
    ],
    "SliceThickness": 2,
    "SliceTiming": [
      1.005,
      0,
      1.04,
      0.0375,
      1.0775,
      0.075,
      1.115,
      0.1125,
      1.1525,
      0.1475,
      1.19,
      0.185,
      1.2275,
      0.2225,
      1.265,
      0.26,
      1.3,
      0.2975,
      1.3375,
      0.335,
      1.375,
      0.3725,
      1.4125,
      0.41,
      1.45,
      0.445,
      1.4875,
      0.4825,
      1.525,
      0.52,
      1.5625,
      0.5575,
      1.5975,
      0.595,
      1.635,
      0.6325,
      1.6725,
      0.67,
      1.71,
      0.7075,
      1.7475,
      0.7425,
      1.785,
      0.78,
      1.8225,
      0.8175,
      1.86,
      0.855,
      1.895,
      0.8925,
      1.9325,
      0.93,
      1.97,
      0.9675
    ],
    "SoftwareVersions": "syngo_MR_B17",
    "SpacingBetweenSlices": 2,
    "StationName": "FMRIFD7T",
    "TaskName": "HalfFovNoTask",
    "TotalReadoutTime": 0.0190001,
    "TxRefAmp": 321,
    "dataset": "ds001555",
    "dcmmeta_affine": [
      [
        -1.9999831914901733,
        4.0034059400895217e-10,
        0.008208253420889378,
        95.76705169677734
      ],
      [
        -0.002124078804627061,
        1.9318759441375732,
        -0.517542839050293,
        -54.059513092041016
      ],
      [
        0.007928663864731789,
        0.5175471901893616,
        1.9318597316741943,
        -55.51789474487305
      ],
      [
        0.0,
        0.0,
        0.0,
        1.0
      ]
    ],
    "dcmmeta_reorient_transform": [
      [
        0.0,
        -1.0,
        0.0,
        95.0
      ],
      [
        1.0,
        0.0,
        0.0,
        0.0
      ],
      [
        0.0,
        0.0,
        1.0,
        0.0
      ],
      [
        0.0,
        0.0,
        0.0,
        1.0
      ]
    ],
    "dcmmeta_shape": [
      96,
      96,
      54,
      164
    ],
    "dcmmeta_slice_dim": 2,
    "dcmmeta_version": 0.6,
    "global": {
      "const": {
        "AcquisitionMatrix": [
          0,
          96,
          96,
          0
        ],
        "Allergies": "No Known Allergies",
        "AngioFlag": "N",
        "BitsAllocated": 16,
        "BitsStored": 12,
        "BodyPartExamined": "HEAD",
        "Columns": 768,
        "EchoNumbers": 1,
        "EchoTime": 25.0,
        "EchoTrainLength": 1,
        "FlipAngle": 50.0,
        "HighBit": 11,
        "ImageOrientationPatient": [
          0.99999157803723,
          0.00106203942406,
          0.00396433183257,
          2.001703e-10,
          0.96593800087893,
          -0.2587736046393
        ],
        "ImagePositionPatient": [
          -767.76139276714,
          -779.29273444391,
          164.88092233343
        ],
        "ImageType": [
          "ORIGINAL",
          "PRIMARY",
          "M",
          "ND",
          "ECHO_00",
          "MOSAIC"
        ],
        "ImagedNucleus": "1H",
        "ImagingFrequency": 297.204993,
        "InPlanePhaseEncodingDirection": "ROW",
        "LargestImagePixelValue": 4095,
        "MRAcquisitionType": "2D",
        "MagneticFieldStrength": 6.98,
        "Manufacturer": "SIEMENS",
        "ManufacturerModelName": "Investigational_Device_7T",
        "Modality": "MR",
        "NumberOfAverages": 1.0,
        "NumberOfPhaseEncodingSteps": 94,
        "PercentPhaseFieldOfView": 100.0,
        "PercentSampling": 100.0,
        "PerformedProcedureStepStartTime": "180307.448000",
        "PhotometricInterpretation": "MONOCHROME2",
        "PixelBandwidth": 2003.0,
        "PixelRepresentation": 0,
        "PixelSpacing": [
          2.0,
          2.0
        ],
        "PositionReferenceIndicator": "",
        "ProcedureCodeSequence": [
          {
            "CodeMeaning": "MRI Procedure Limited",
            "CodeValue": "MI01491",
            "CodingSchemeDesignator": "USA Standard",
            "ContextIdentifier": "4000127006"
          }
        ],
        "ProtocolName": "NIH_EPI_2.0iso_TR2_Run10",
        "ReferencedStudySequence": [
          {
            "ReferencedSOPClassUID": "1.2.840.10008.3.1.2.3.1",
            "ReferencedSOPInstanceUID": "1.2.840.113564.9.1.2787814059.53.2.5000092844"
          }
        ],
        "RepetitionTime": 2000.0,
        "RequestedProcedureCodeSequence": [
          {
            "CodeMeaning": "MRI Procedure Limited",
            "CodeValue": "MI01491",
            "CodingSchemeDesignator": "USA Standard",
            "ContextIdentifier": "4000127006"
          }
        ],
        "RequestingService": "NIHM Molecular Imaging Branch",
        "Rows": 768,
        "SAR": 0.08029645587828,
        "SamplesPerPixel": 1,
        "ScanningSequence": "EP",
        "SequenceName": "epfid2d1_96",
        "SequenceVariant": "SK",
        "SeriesDescription": "NIH_EPI_2.0iso_TR2_Run10",
        "SeriesNumber": 14,
        "SliceLocation": -39.244294500806,
        "SliceThickness": 2.0,
        "SmallestImagePixelValue": 0,
        "SoftwareVersions": "syngo MR B17",
        "SpacingBetweenSlices": 1.9999999794435,
        "TransmitCoilName": "32Ch_Head_7T",
        "VariableFlipAngleFlag": "N",
        "WindowCenterWidthExplanation": "Algo1",
        "dBdt": 0.0
      },
      "slices": {}
    },
    "modality": "bold",
    "run_id": 11,
    "session_id": "10",
    "subject_id": "001",
    "task_id": "HalfFovNoTask",
    "time": {
      "samples": {
        "AcquisitionNumber": [
          1,
          2,
          3,
          4,
          5,
          6,
          7,
          8,
          9,
          10,
          11,
          12,
          13,
          14,
          15,
          16,
          17,
          18,
          19,
          20,
          21,
          22,
          23,
          24,
          25,
          26,
          27,
          28,
          29,
          30,
          31,
          32,
          33,
          34,
          35,
          36,
          37,
          38,
          39,
          40,
          41,
          42,
          43,
          44,
          45,
          46,
          47,
          48,
          49,
          50,
          51,
          52,
          53,
          54,
          55,
          56,
          57,
          58,
          59,
          60,
          61,
          62,
          63,
          64,
          65,
          66,
          67,
          68,
          69,
          70,
          71,
          72,
          73,
          74,
          75,
          76,
          77,
          78,
          79,
          80,
          81,
          82,
          83,
          84,
          85,
          86,
          87,
          88,
          89,
          90,
          91,
          92,
          93,
          94,
          95,
          96,
          97,
          98,
          99,
          100,
          101,
          102,
          103,
          104,
          105,
          106,
          107,
          108,
          109,
          110,
          111,
          112,
          113,
          114,
          115,
          116,
          117,
          118,
          119,
          120,
          121,
          122,
          123,
          124,
          125,
          126,
          127,
          128,
          129,
          130,
          131,
          132,
          133,
          134,
          135,
          136,
          137,
          138,
          139,
          140,
          141,
          142,
          143,
          144,
          145,
          146,
          147,
          148,
          149,
          150,
          151,
          152,
          153,
          154,
          155,
          156,
          157,
          158,
          159,
          160,
          161,
          162,
          163,
          164
        ],
        "AcquisitionTime": [
          "192543.455000",
          "192547.470000",
          "192549.477500",
          "192551.485000",
          "192553.495000",
          "192555.502500",
          "192557.510000",
          "192559.517500",
          "192601.525000",
          "192603.535000",
          "192605.542500",
          "192607.550000",
          "192609.557500",
          "192611.565000",
          "192613.575000",
          "192615.582500",
          "192617.590000",
          "192619.597500",
          "192621.607500",
          "192623.615000",
          "192625.622500",
          "192627.630000",
          "192629.637500",
          "192631.647500",
          "192633.655000",
          "192635.662500",
          "192637.670000",
          "192639.677500",
          "192641.687500",
          "192643.695000",
          "192645.702500",
          "192647.710000",
          "192649.720000",
          "192651.727500",
          "192653.735000",
          "192655.742500",
          "192657.750000",
          "192659.760000",
          "192701.767500",
          "192703.775000",
          "192705.782500",
          "192707.790000",
          "192709.800000",
          "192711.807500",
          "192713.815000",
          "192715.822500",
          "192717.832500",
          "192719.840000",
          "192721.847500",
          "192723.855000",
          "192725.862500",
          "192727.872500",
          "192729.880000",
          "192731.887500",
          "192733.895000",
          "192735.902500",
          "192737.912500",
          "192739.920000",
          "192741.927500",
          "192743.935000",
          "192745.945000",
          "192747.952500",
          "192749.960000",
          "192751.967500",
          "192753.975000",
          "192755.985000",
          "192757.992500",
          "192800.000000",
          "192802.007500",
          "192804.015000",
          "192806.025000",
          "192808.032500",
          "192810.040000",
          "192812.047500",
          "192814.055000",
          "192816.065000",
          "192818.072500",
          "192820.080000",
          "192822.087500",
          "192824.097500",
          "192826.105000",
          "192828.112500",
          "192830.120000",
          "192832.127500",
          "192834.137500",
          "192836.145000",
          "192838.152500",
          "192840.160000",
          "192842.167500",
          "192844.177500",
          "192846.185000",
          "192848.192500",
          "192850.200000",
          "192852.210000",
          "192854.217500",
          "192856.225000",
          "192858.232500",
          "192900.240000",
          "192902.250000",
          "192904.257500",
          "192906.265000",
          "192908.272500",
          "192910.280000",
          "192912.290000",
          "192914.297500",
          "192916.305000",
          "192918.312500",
          "192920.322500",
          "192922.330000",
          "192924.337500",
          "192926.345000",
          "192928.352500",
          "192930.362500",
          "192932.370000",
          "192934.377500",
          "192936.385000",
          "192938.392500",
          "192940.402500",
          "192942.410000",
          "192944.417500",
          "192946.425000",
          "192948.432500",
          "192950.442500",
          "192952.450000",
          "192954.457500",
          "192956.465000",
          "192958.475000",
          "193000.482500",
          "193002.490000",
          "193004.497500",
          "193006.505000",
          "193008.515000",
          "193010.522500",
          "193012.530000",
          "193014.537500",
          "193016.545000",
          "193018.555000",
          "193020.562500",
          "193022.570000",
          "193024.577500",
          "193026.587500",
          "193028.595000",
          "193030.602500",
          "193032.610000",
          "193034.617500",
          "193036.627500",
          "193038.635000",
          "193040.642500",
          "193042.650000",
          "193044.657500",
          "193046.667500",
          "193048.675000",
          "193050.682500",
          "193052.690000",
          "193054.700000",
          "193056.707500",
          "193058.715000",
          "193100.722500",
          "193102.730000",
          "193104.740000",
          "193106.747500",
          "193108.755000",
          "193110.762500",
          "193112.770000"
        ],
        "ContentTime": [
          "192620.120000",
          "192620.135000",
          "192620.135000",
          "192620.135000",
          "192620.135000",
          "192620.151000",
          "192620.151000",
          "192620.151000",
          "192620.167000",
          "192620.167000",
          "192620.167000",
          "192620.167000",
          "192620.167000",
          "192620.167000",
          "192620.182000",
          "192620.182000",
          "192620.182000",
          "192700.120000",
          "192700.120000",
          "192700.120000",
          "192700.120000",
          "192700.135000",
          "192700.135000",
          "192700.135000",
          "192700.135000",
          "192700.151000",
          "192700.151000",
          "192700.151000",
          "192700.151000",
          "192700.151000",
          "192700.151000",
          "192700.151000",
          "192700.167000",
          "192700.167000",
          "192700.167000",
          "192700.167000",
          "192700.167000",
          "192740.120000",
          "192740.120000",
          "192740.120000",
          "192740.135000",
          "192740.135000",
          "192740.135000",
          "192740.135000",
          "192740.135000",
          "192740.135000",
          "192740.167000",
          "192740.167000",
          "192740.167000",
          "192740.167000",
          "192740.167000",
          "192740.167000",
          "192740.182000",
          "192740.182000",
          "192740.182000",
          "192740.182000",
          "192740.182000",
          "192820.120000",
          "192820.120000",
          "192820.120000",
          "192820.120000",
          "192820.120000",
          "192820.135000",
          "192820.135000",
          "192820.135000",
          "192820.135000",
          "192820.135000",
          "192820.135000",
          "192820.151000",
          "192820.167000",
          "192820.167000",
          "192820.167000",
          "192820.167000",
          "192820.182000",
          "192820.182000",
          "192820.182000",
          "192820.182000",
          "192900.120000",
          "192900.120000",
          "192900.120000",
          "192900.120000",
          "192900.120000",
          "192900.135000",
          "192900.135000",
          "192900.135000",
          "192900.135000",
          "192900.135000",
          "192900.135000",
          "192900.151000",
          "192900.151000",
          "192900.151000",
          "192900.151000",
          "192900.151000",
          "192900.151000",
          "192900.151000",
          "192900.167000",
          "192900.167000",
          "192940.120000",
          "192940.120000",
          "192940.120000",
          "192940.120000",
          "192940.135000",
          "192940.135000",
          "192940.135000",
          "192940.135000",
          "192940.135000",
          "192940.135000",
          "192940.135000",
          "192940.151000",
          "192940.151000",
          "192940.151000",
          "192940.151000",
          "192940.151000",
          "192940.151000",
          "192940.167000",
          "192940.167000",
          "192940.167000",
          "193020.120000",
          "193020.120000",
          "193020.120000",
          "193020.120000",
          "193020.135000",
          "193020.135000",
          "193020.135000",
          "193020.135000",
          "193020.135000",
          "193020.135000",
          "193020.135000",
          "193020.151000",
          "193020.151000",
          "193020.151000",
          "193020.151000",
          "193020.151000",
          "193020.151000",
          "193020.167000",
          "193020.167000",
          "193020.167000",
          "193100.120000",
          "193100.120000",
          "193100.120000",
          "193100.120000",
          "193100.135000",
          "193100.135000",
          "193100.135000",
          "193100.135000",
          "193100.135000",
          "193100.135000",
          "193100.135000",
          "193100.151000",
          "193100.151000",
          "193100.151000",
          "193100.151000",
          "193100.151000",
          "193100.151000",
          "193100.151000",
          "193100.167000",
          "193100.167000",
          "193112.807000",
          "193112.807000",
          "193112.823000",
          "193112.838000",
          "193112.838000",
          "193112.838000",
          "193112.838000"
        ],
        "InstanceCreationTime": [
          "192620.120000",
          "192620.135000",
          "192620.135000",
          "192620.135000",
          "192620.135000",
          "192620.151000",
          "192620.151000",
          "192620.151000",
          "192620.167000",
          "192620.167000",
          "192620.167000",
          "192620.167000",
          "192620.167000",
          "192620.167000",
          "192620.182000",
          "192620.182000",
          "192620.182000",
          "192700.120000",
          "192700.120000",
          "192700.120000",
          "192700.120000",
          "192700.135000",
          "192700.135000",
          "192700.135000",
          "192700.135000",
          "192700.151000",
          "192700.151000",
          "192700.151000",
          "192700.151000",
          "192700.151000",
          "192700.151000",
          "192700.151000",
          "192700.167000",
          "192700.167000",
          "192700.167000",
          "192700.167000",
          "192700.167000",
          "192740.120000",
          "192740.120000",
          "192740.120000",
          "192740.135000",
          "192740.135000",
          "192740.135000",
          "192740.135000",
          "192740.135000",
          "192740.135000",
          "192740.167000",
          "192740.167000",
          "192740.167000",
          "192740.167000",
          "192740.167000",
          "192740.167000",
          "192740.182000",
          "192740.182000",
          "192740.182000",
          "192740.182000",
          "192740.182000",
          "192820.120000",
          "192820.120000",
          "192820.120000",
          "192820.120000",
          "192820.120000",
          "192820.135000",
          "192820.135000",
          "192820.135000",
          "192820.135000",
          "192820.135000",
          "192820.135000",
          "192820.151000",
          "192820.167000",
          "192820.167000",
          "192820.167000",
          "192820.167000",
          "192820.182000",
          "192820.182000",
          "192820.182000",
          "192820.182000",
          "192900.120000",
          "192900.120000",
          "192900.120000",
          "192900.120000",
          "192900.120000",
          "192900.135000",
          "192900.135000",
          "192900.135000",
          "192900.135000",
          "192900.135000",
          "192900.135000",
          "192900.151000",
          "192900.151000",
          "192900.151000",
          "192900.151000",
          "192900.151000",
          "192900.151000",
          "192900.151000",
          "192900.167000",
          "192900.167000",
          "192940.120000",
          "192940.120000",
          "192940.120000",
          "192940.120000",
          "192940.135000",
          "192940.135000",
          "192940.135000",
          "192940.135000",
          "192940.135000",
          "192940.135000",
          "192940.135000",
          "192940.151000",
          "192940.151000",
          "192940.151000",
          "192940.151000",
          "192940.151000",
          "192940.151000",
          "192940.167000",
          "192940.167000",
          "192940.167000",
          "193020.120000",
          "193020.120000",
          "193020.120000",
          "193020.120000",
          "193020.135000",
          "193020.135000",
          "193020.135000",
          "193020.135000",
          "193020.135000",
          "193020.135000",
          "193020.135000",
          "193020.151000",
          "193020.151000",
          "193020.151000",
          "193020.151000",
          "193020.151000",
          "193020.151000",
          "193020.167000",
          "193020.167000",
          "193020.167000",
          "193100.120000",
          "193100.120000",
          "193100.120000",
          "193100.120000",
          "193100.135000",
          "193100.135000",
          "193100.135000",
          "193100.135000",
          "193100.135000",
          "193100.135000",
          "193100.135000",
          "193100.151000",
          "193100.151000",
          "193100.151000",
          "193100.151000",
          "193100.151000",
          "193100.151000",
          "193100.151000",
          "193100.167000",
          "193100.167000",
          "193112.807000",
          "193112.807000",
          "193112.823000",
          "193112.838000",
          "193112.838000",
          "193112.838000",
          "193112.838000"
        ],
        "InstanceNumber": [
          1,
          2,
          3,
          4,
          5,
          6,
          7,
          8,
          9,
          10,
          11,
          12,
          13,
          14,
          15,
          16,
          17,
          18,
          19,
          20,
          21,
          22,
          23,
          24,
          25,
          26,
          27,
          28,
          29,
          30,
          31,
          32,
          33,
          34,
          35,
          36,
          37,
          38,
          39,
          40,
          41,
          42,
          43,
          44,
          45,
          46,
          47,
          48,
          49,
          50,
          51,
          52,
          53,
          54,
          55,
          56,
          57,
          58,
          59,
          60,
          61,
          62,
          63,
          64,
          65,
          66,
          67,
          68,
          69,
          70,
          71,
          72,
          73,
          74,
          75,
          76,
          77,
          78,
          79,
          80,
          81,
          82,
          83,
          84,
          85,
          86,
          87,
          88,
          89,
          90,
          91,
          92,
          93,
          94,
          95,
          96,
          97,
          98,
          99,
          100,
          101,
          102,
          103,
          104,
          105,
          106,
          107,
          108,
          109,
          110,
          111,
          112,
          113,
          114,
          115,
          116,
          117,
          118,
          119,
          120,
          121,
          122,
          123,
          124,
          125,
          126,
          127,
          128,
          129,
          130,
          131,
          132,
          133,
          134,
          135,
          136,
          137,
          138,
          139,
          140,
          141,
          142,
          143,
          144,
          145,
          146,
          147,
          148,
          149,
          150,
          151,
          152,
          153,
          154,
          155,
          156,
          157,
          158,
          159,
          160,
          161,
          162,
          163,
          164
        ],
        "WindowCenter": [
          1193.0,
          1190.0,
          1191.0,
          1191.0,
          1191.0,
          1190.0,
          1188.0,
          1191.0,
          1193.0,
          1191.0,
          1189.0,
          1188.0,
          1187.0,
          1187.0,
          1188.0,
          1189.0,
          1189.0,
          1189.0,
          1190.0,
          1190.0,
          1190.0,
          1191.0,
          1190.0,
          1189.0,
          1188.0,
          1190.0,
          1192.0,
          1192.0,
          1191.0,
          1190.0,
          1189.0,
          1190.0,
          1188.0,
          1188.0,
          1190.0,
          1190.0,
          1191.0,
          1191.0,
          1189.0,
          1190.0,
          1190.0,
          1190.0,
          1190.0,
          1189.0,
          1188.0,
          1187.0,
          1188.0,
          1189.0,
          1190.0,
          1191.0,
          1192.0,
          1192.0,
          1190.0,
          1191.0,
          1192.0,
          1193.0,
          1193.0,
          1192.0,
          1192.0,
          1189.0,
          1187.0,
          1187.0,
          1190.0,
          1189.0,
          1187.0,
          1189.0,
          1190.0,
          1190.0,
          1189.0,
          1188.0,
          1188.0,
          1189.0,
          1188.0,
          1190.0,
          1191.0,
          1190.0,
          1189.0,
          1191.0,
          1192.0,
          1191.0,
          1191.0,
          1192.0,
          1191.0,
          1191.0,
          1191.0,
          1191.0,
          1191.0,
          1192.0,
          1191.0,
          1190.0,
          1189.0,
          1190.0,
          1190.0,
          1191.0,
          1191.0,
          1191.0,
          1191.0,
          1192.0,
          1192.0,
          1192.0,
          1192.0,
          1193.0,
          1193.0,
          1192.0,
          1191.0,
          1191.0,
          1192.0,
          1192.0,
          1192.0,
          1192.0,
          1192.0,
          1192.0,
          1192.0,
          1194.0,
          1195.0,
          1195.0,
          1194.0,
          1192.0,
          1191.0,
          1190.0,
          1191.0,
          1189.0,
          1188.0,
          1188.0,
          1190.0,
          1192.0,
          1191.0,
          1190.0,
          1193.0,
          1195.0,
          1194.0,
          1191.0,
          1190.0,
          1190.0,
          1190.0,
          1190.0,
          1188.0,
          1188.0,
          1189.0,
          1190.0,
          1192.0,
          1193.0,
          1195.0,
          1194.0,
          1192.0,
          1191.0,
          1191.0,
          1191.0,
          1192.0,
          1193.0,
          1194.0,
          1194.0,
          1192.0,
          1192.0,
          1192.0,
          1191.0,
          1191.0,
          1191.0,
          1189.0,
          1191.0,
          1191.0,
          1190.0,
          1191.0,
          1192.0
        ],
        "WindowWidth": [
          2822.0,
          2820.0,
          2823.0,
          2824.0,
          2822.0,
          2816.0,
          2812.0,
          2825.0,
          2825.0,
          2820.0,
          2816.0,
          2812.0,
          2813.0,
          2816.0,
          2816.0,
          2818.0,
          2817.0,
          2817.0,
          2818.0,
          2819.0,
          2821.0,
          2825.0,
          2821.0,
          2817.0,
          2818.0,
          2820.0,
          2828.0,
          2828.0,
          2823.0,
          2820.0,
          2818.0,
          2818.0,
          2816.0,
          2819.0,
          2821.0,
          2822.0,
          2823.0,
          2822.0,
          2818.0,
          2816.0,
          2818.0,
          2820.0,
          2819.0,
          2815.0,
          2813.0,
          2813.0,
          2813.0,
          2817.0,
          2819.0,
          2822.0,
          2825.0,
          2824.0,
          2822.0,
          2823.0,
          2824.0,
          2825.0,
          2826.0,
          2826.0,
          2825.0,
          2815.0,
          2811.0,
          2815.0,
          2819.0,
          2812.0,
          2809.0,
          2817.0,
          2822.0,
          2818.0,
          2817.0,
          2814.0,
          2815.0,
          2816.0,
          2813.0,
          2819.0,
          2821.0,
          2816.0,
          2818.0,
          2821.0,
          2822.0,
          2821.0,
          2821.0,
          2822.0,
