{
  "aor": 0.0018103658536585366,
  "aqi": 0.005015558170731708,
  "bids_meta": {
    "AcquisitionMatrixPE": 96,
    "AcquisitionNumber": 1,
    "AcquisitionTime": "19:11:3.775000",
    "BandwidthPerPixelPhaseEncode": 52.083,
    "BaseResolution": 96,
    "BodyPartExamined": "HEAD",
    "ConversionSoftware": "dcm2niix",
    "ConversionSoftwareVersion": "v1.0.20180622 GCC6.3.0",
    "DerivedVendorReportedEchoSpacing": 0.000600004,
    "DeviceSerialNumber": "18926",
    "DwellTime": 2.6e-06,
    "EchoTime": 0.025,
    "EffectiveEchoSpacing": 0.000200001,
    "FlipAngle": 50,
    "ImageOrientationPatientDICOM": [
      0.999992,
      0.00106204,
      0.00396433,
      2.0017e-10,
      0.965938,
      -0.258774
    ],
    "ImageType": [
      "ORIGINAL",
      "PRIMARY",
      "M",
      "ND",
      "ECHO",
      "00",
      "MOSAIC"
    ],
    "InPlanePhaseEncodingDirectionDICOM": "ROW",
    "InstitutionName": "NIMH",
    "InstitutionalDepartmentName": "Department",
    "MRAcquisitionType": "2D",
    "MagneticFieldStrength": 6.98,
    "Manufacturer": "Siemens",
    "ManufacturersModelName": "Investigational_Device_7T",
    "Modality": "MR",
    "ParallelReductionFactorInPlane": 3,
    "PartialFourier": 1,
    "PatientPosition": "HFS",
    "PercentPhaseFOV": 100,
    "PhaseEncodingDirection": "i",
    "PhaseEncodingSteps": 94,
    "PhaseResolution": 1,
    "PixelBandwidth": 2003,
    "ProcedureStepDescription": "MRI_Procedure_Limited",
    "ProtocolName": "NIH_EPI_2.0iso_TR2_Run08",
    "PulseSequenceDetails": "%CustomerSeq%_inati_nih_epi",
    "ReceiveCoilName": "32Ch_Head_7T",
    "ReconMatrixPE": 96,
    "RepetitionTime": 2,
    "SAR": 0.0802965,
    "ScanningSequence": "EP",
    "SequenceName": "epfid2d1_96",
    "SequenceVariant": "SK",
    "SeriesDescription": "NIH_EPI_2.0iso_TR2_Run08",
    "SeriesNumber": 12,
    "ShimSetting": [
      -68,
      215,
      840,
      1199,
      -267,
      642,
      92,
      -480
    ],
    "SliceThickness": 2,
    "SliceTiming": [
      1.005,
      0,
      1.0425,
      0.0375,
      1.0775,
      0.075,
      1.115,
      0.1125,
      1.1525,
      0.15,
      1.19,
      0.1875,
      1.2275,
      0.2225,
      1.265,
      0.26,
      1.3025,
      0.2975,
      1.34,
      0.335,
      1.375,
      0.3725,
      1.4125,
      0.41,
      1.45,
      0.4475,
      1.4875,
      0.4825,
      1.525,
      0.52,
      1.5625,
      0.5575,
      1.6,
      0.595,
      1.6375,
      0.6325,
      1.6725,
      0.67,
      1.71,
      0.7075,
      1.7475,
      0.745,
      1.785,
      0.78,
      1.8225,
      0.8175,
      1.86,
      0.855,
      1.8975,
      0.8925,
      1.9325,
      0.93,
      1.97,
      0.9675
    ],
    "SoftwareVersions": "syngo_MR_B17",
    "SpacingBetweenSlices": 2,
    "StationName": "FMRIFD7T",
    "TaskName": "HalfFovNoTask",
    "TotalReadoutTime": 0.0190001,
    "TxRefAmp": 321,
    "dataset": "ds001555",
    "dcmmeta_affine": [
      [
        -1.9999831914901733,
        4.0034059400895217e-10,
        0.008208253420889378,
        95.76705169677734
      ],
      [
        -0.002124078804627061,
        1.9318759441375732,
        -0.517542839050293,
        -54.059513092041016
      ],
      [
        0.007928663864731789,
        0.5175471901893616,
        1.9318597316741943,
        -55.51789474487305
      ],
      [
        0.0,
        0.0,
        0.0,
        1.0
      ]
    ],
    "dcmmeta_reorient_transform": [
      [
        0.0,
        -1.0,
        0.0,
        95.0
      ],
      [
        1.0,
        0.0,
        0.0,
        0.0
      ],
      [
        0.0,
        0.0,
        1.0,
        0.0
      ],
      [
        0.0,
        0.0,
        0.0,
        1.0
      ]
    ],
    "dcmmeta_shape": [
      96,
      96,
      54,
      164
    ],
    "dcmmeta_slice_dim": 2,
    "dcmmeta_version": 0.6,
    "global": {
      "const": {
        "AcquisitionMatrix": [
          0,
          96,
          96,
          0
        ],
        "Allergies": "No Known Allergies",
        "AngioFlag": "N",
        "BitsAllocated": 16,
        "BitsStored": 12,
        "BodyPartExamined": "HEAD",
        "Columns": 768,
        "EchoNumbers": 1,
        "EchoTime": 25.0,
        "EchoTrainLength": 1,
        "FlipAngle": 50.0,
        "HighBit": 11,
        "ImageOrientationPatient": [
          0.99999157803723,
          0.00106203942406,
          0.00396433183257,
          2.001703e-10,
          0.96593800087893,
          -0.2587736046393
        ],
        "ImagePositionPatient": [
          -767.76139276714,
          -779.29273444391,
          164.88092233343
        ],
        "ImageType": [
          "ORIGINAL",
          "PRIMARY",
          "M",
          "ND",
          "ECHO_00",
          "MOSAIC"
        ],
        "ImagedNucleus": "1H",
        "ImagingFrequency": 297.20496,
        "InPlanePhaseEncodingDirection": "ROW",
        "LargestImagePixelValue": 4095,
        "MRAcquisitionType": "2D",
        "MagneticFieldStrength": 6.98,
        "Manufacturer": "SIEMENS",
        "ManufacturerModelName": "Investigational_Device_7T",
        "Modality": "MR",
        "NumberOfAverages": 1.0,
        "NumberOfPhaseEncodingSteps": 94,
        "PercentPhaseFieldOfView": 100.0,
        "PercentSampling": 100.0,
        "PerformedProcedureStepStartTime": "180307.448000",
        "PhotometricInterpretation": "MONOCHROME2",
        "PixelBandwidth": 2003.0,
        "PixelRepresentation": 0,
        "PixelSpacing": [
          2.0,
          2.0
        ],
        "PositionReferenceIndicator": "",
        "ProcedureCodeSequence": [
          {
            "CodeMeaning": "MRI Procedure Limited",
            "CodeValue": "MI01491",
            "CodingSchemeDesignator": "USA Standard",
            "ContextIdentifier": "4000127006"
          }
        ],
        "ProtocolName": "NIH_EPI_2.0iso_TR2_Run08",
        "ReferencedStudySequence": [
          {
            "ReferencedSOPClassUID": "1.2.840.10008.3.1.2.3.1",
            "ReferencedSOPInstanceUID": "1.2.840.113564.9.1.2787814059.53.2.5000092844"
          }
        ],
        "RepetitionTime": 2000.0,
        "RequestedProcedureCodeSequence": [
          {
            "CodeMeaning": "MRI Procedure Limited",
            "CodeValue": "MI01491",
            "CodingSchemeDesignator": "USA Standard",
            "ContextIdentifier": "4000127006"
          }
        ],
        "RequestingService": "NIHM Molecular Imaging Branch",
        "Rows": 768,
        "SAR": 0.08029645587828,
        "SamplesPerPixel": 1,
        "ScanningSequence": "EP",
        "SequenceName": "epfid2d1_96",
        "SequenceVariant": "SK",
        "SeriesDescription": "NIH_EPI_2.0iso_TR2_Run08",
        "SeriesNumber": 12,
        "SliceLocation": -39.244294500806,
        "SliceThickness": 2.0,
        "SmallestImagePixelValue": 0,
        "SoftwareVersions": "syngo MR B17",
        "SpacingBetweenSlices": 1.9999999794435,
        "TransmitCoilName": "32Ch_Head_7T",
        "VariableFlipAngleFlag": "N",
        "WindowCenterWidthExplanation": "Algo1",
        "dBdt": 0.0
      },
      "slices": {}
    },
    "modality": "bold",
    "run_id": 9,
    "session_id": "10",
    "subject_id": "001",
    "task_id": "HalfFovNoTask",
    "time": {
      "samples": {
        "AcquisitionNumber": [
          1,
          2,
          3,
          4,
          5,
          6,
          7,
          8,
          9,
          10,
          11,
          12,
          13,
          14,
          15,
          16,
          17,
          18,
          19,
          20,
          21,
          22,
          23,
          24,
          25,
          26,
          27,
          28,
          29,
          30,
          31,
          32,
          33,
          34,
          35,
          36,
          37,
          38,
          39,
          40,
          41,
          42,
          43,
          44,
          45,
          46,
          47,
          48,
          49,
          50,
          51,
          52,
          53,
          54,
          55,
          56,
          57,
          58,
          59,
          60,
          61,
          62,
          63,
          64,
          65,
          66,
          67,
          68,
          69,
          70,
          71,
          72,
          73,
          74,
          75,
          76,
          77,
          78,
          79,
          80,
          81,
          82,
          83,
          84,
          85,
          86,
          87,
          88,
          89,
          90,
          91,
          92,
          93,
          94,
          95,
          96,
          97,
          98,
          99,
          100,
          101,
          102,
          103,
          104,
          105,
          106,
          107,
          108,
          109,
          110,
          111,
          112,
          113,
          114,
          115,
          116,
          117,
          118,
          119,
          120,
          121,
          122,
          123,
          124,
          125,
          126,
          127,
          128,
          129,
          130,
          131,
          132,
          133,
          134,
          135,
          136,
          137,
          138,
          139,
          140,
          141,
          142,
          143,
          144,
          145,
          146,
          147,
          148,
          149,
          150,
          151,
          152,
          153,
          154,
          155,
          156,
          157,
          158,
          159,
          160,
          161,
          162,
          163,
          164
        ],
        "AcquisitionTime": [
          "191103.775000",
          "191107.790000",
          "191109.797500",
          "191111.807500",
          "191113.815000",
          "191115.822500",
          "191117.830000",
          "191119.837500",
          "191121.847500",
          "191123.855000",
          "191125.862500",
          "191127.870000",
          "191129.877500",
          "191131.887500",
          "191133.895000",
          "191135.902500",
          "191137.910000",
          "191139.920000",
          "191141.927500",
          "191143.935000",
          "191145.942500",
          "191147.950000",
          "191149.960000",
          "191151.967500",
          "191153.975000",
          "191155.982500",
          "191157.990000",
          "191200.000000",
          "191202.007500",
          "191204.015000",
          "191206.022500",
          "191208.030000",
          "191210.040000",
          "191212.047500",
          "191214.055000",
          "191216.062500",
          "191218.072500",
          "191220.080000",
          "191222.087500",
          "191224.095000",
          "191226.102500",
          "191228.112500",
          "191230.120000",
          "191232.127500",
          "191234.135000",
          "191236.142500",
          "191238.152500",
          "191240.160000",
          "191242.167500",
          "191244.175000",
          "191246.185000",
          "191248.192500",
          "191250.200000",
          "191252.207500",
          "191254.215000",
          "191256.225000",
          "191258.232500",
          "191300.240000",
          "191302.247500",
          "191304.255000",
          "191306.265000",
          "191308.272500",
          "191310.280000",
          "191312.287500",
          "191314.297500",
          "191316.305000",
          "191318.312500",
          "191320.320000",
          "191322.327500",
          "191324.337500",
          "191326.345000",
          "191328.352500",
          "191330.360000",
          "191332.367500",
          "191334.377500",
          "191336.385000",
          "191338.392500",
          "191340.400000",
          "191342.410000",
          "191344.417500",
          "191346.425000",
          "191348.432500",
          "191350.440000",
          "191352.450000",
          "191354.457500",
          "191356.465000",
          "191358.472500",
          "191400.480000",
          "191402.490000",
          "191404.497500",
          "191406.505000",
          "191408.512500",
          "191410.520000",
          "191412.530000",
          "191414.537500",
          "191416.545000",
          "191418.552500",
          "191420.562500",
          "191422.570000",
          "191424.577500",
          "191426.585000",
          "191428.592500",
          "191430.602500",
          "191432.610000",
          "191434.617500",
          "191436.625000",
          "191438.632500",
          "191440.642500",
          "191442.650000",
          "191444.657500",
          "191446.665000",
          "191448.675000",
          "191450.682500",
          "191452.690000",
          "191454.697500",
          "191456.705000",
          "191458.715000",
          "191500.722500",
          "191502.730000",
          "191504.737500",
          "191506.745000",
          "191508.755000",
          "191510.762500",
          "191512.770000",
          "191514.777500",
          "191516.787500",
          "191518.795000",
          "191520.802500",
          "191522.810000",
          "191524.817500",
          "191526.827500",
          "191528.835000",
          "191530.842500",
          "191532.850000",
          "191534.857500",
          "191536.867500",
          "191538.875000",
          "191540.882500",
          "191542.890000",
          "191544.897500",
          "191546.907500",
          "191548.915000",
          "191550.922500",
          "191552.930000",
          "191554.940000",
          "191556.947500",
          "191558.955000",
          "191600.962500",
          "191602.970000",
          "191604.980000",
          "191606.987500",
          "191608.995000",
          "191611.002500",
          "191613.010000",
          "191615.020000",
          "191617.027500",
          "191619.035000",
          "191621.042500",
          "191623.052500",
          "191625.060000",
          "191627.067500",
          "191629.075000",
          "191631.082500",
          "191633.092500"
        ],
        "ContentTime": [
          "191203.292000",
          "191203.292000",
          "191203.292000",
          "191203.292000",
          "191203.292000",
          "191203.292000",
          "191203.307000",
          "191203.307000",
          "191203.307000",
          "191203.307000",
          "191203.307000",
          "191203.307000",
          "191203.307000",
          "191203.323000",
          "191203.323000",
          "191203.323000",
          "191203.338000",
          "191203.338000",
          "191203.338000",
          "191203.338000",
          "191203.354000",
          "191203.354000",
          "191203.354000",
          "191203.354000",
          "191203.354000",
          "191203.370000",
          "191203.370000",
          "191203.370000",
          "191243.276000",
          "191243.276000",
          "191243.276000",
          "191243.276000",
          "191243.292000",
          "191243.292000",
          "191243.292000",
          "191243.292000",
          "191243.292000",
          "191243.292000",
          "191243.292000",
          "191243.307000",
          "191243.307000",
          "191243.307000",
          "191243.307000",
          "191243.323000",
          "191243.323000",
          "191243.323000",
          "191243.323000",
          "191243.323000",
          "191323.276000",
          "191323.276000",
          "191323.276000",
          "191323.276000",
          "191323.292000",
          "191323.292000",
          "191323.292000",
          "191323.307000",
          "191323.307000",
          "191323.307000",
          "191323.307000",
          "191323.307000",
          "191323.307000",
          "191323.307000",
          "191323.323000",
          "191323.323000",
          "191323.323000",
          "191323.323000",
          "191323.323000",
          "191323.323000",
          "191403.276000",
          "191403.276000",
          "191403.276000",
          "191403.276000",
          "191403.292000",
          "191403.292000",
          "191403.292000",
          "191403.292000",
          "191403.292000",
          "191403.292000",
          "191403.292000",
          "191403.307000",
          "191403.307000",
          "191403.307000",
          "191403.307000",
          "191403.323000",
          "191403.323000",
          "191403.323000",
          "191403.323000",
          "191403.323000",
          "191443.276000",
          "191443.276000",
          "191443.276000",
          "191443.276000",
          "191443.292000",
          "191443.292000",
          "191443.292000",
          "191443.292000",
          "191443.292000",
          "191443.292000",
          "191443.292000",
          "191443.307000",
          "191443.307000",
          "191443.307000",
          "191443.307000",
          "191443.307000",
          "191443.307000",
          "191443.323000",
          "191443.323000",
          "191443.323000",
          "191523.276000",
          "191523.276000",
          "191523.276000",
          "191523.276000",
          "191523.292000",
          "191523.292000",
          "191523.292000",
          "191523.292000",
          "191523.292000",
          "191523.292000",
          "191523.292000",
          "191523.307000",
          "191523.307000",
          "191523.307000",
          "191523.307000",
          "191523.307000",
          "191523.307000",
          "191523.323000",
          "191523.323000",
          "191523.323000",
          "191603.276000",
          "191603.276000",
          "191603.276000",
          "191603.276000",
          "191603.292000",
          "191603.292000",
          "191603.292000",
          "191603.292000",
          "191603.292000",
          "191603.307000",
          "191603.307000",
          "191603.307000",
          "191603.307000",
          "191603.307000",
          "191603.323000",
          "191603.323000",
          "191603.323000",
          "191603.323000",
          "191603.323000",
          "191603.323000",
          "191623.276000",
          "191623.276000",
          "191623.276000",
          "191623.292000",
          "191623.292000",
          "191623.292000",
          "191623.292000",
          "191623.307000",
          "191623.307000",
          "191623.307000",
          "191633.963000",
          "191633.963000",
          "191633.963000",
          "191633.963000",
          "191633.963000",
          "191633.979000"
        ],
        "InstanceCreationTime": [
          "191203.292000",
          "191203.292000",
          "191203.292000",
          "191203.292000",
          "191203.292000",
          "191203.292000",
          "191203.307000",
          "191203.307000",
          "191203.307000",
          "191203.307000",
          "191203.307000",
          "191203.307000",
          "191203.307000",
          "191203.323000",
          "191203.323000",
          "191203.323000",
          "191203.338000",
          "191203.338000",
          "191203.338000",
          "191203.338000",
          "191203.354000",
          "191203.354000",
          "191203.354000",
          "191203.354000",
          "191203.354000",
          "191203.370000",
          "191203.370000",
          "191203.370000",
          "191243.276000",
          "191243.276000",
          "191243.276000",
          "191243.276000",
          "191243.292000",
          "191243.292000",
          "191243.292000",
          "191243.292000",
          "191243.292000",
          "191243.292000",
          "191243.292000",
          "191243.307000",
          "191243.307000",
          "191243.307000",
          "191243.307000",
          "191243.323000",
          "191243.323000",
          "191243.323000",
          "191243.323000",
          "191243.323000",
          "191323.276000",
          "191323.276000",
          "191323.276000",
          "191323.276000",
          "191323.292000",
          "191323.292000",
          "191323.292000",
          "191323.307000",
          "191323.307000",
          "191323.307000",
          "191323.307000",
          "191323.307000",
          "191323.307000",
          "191323.307000",
          "191323.323000",
          "191323.323000",
          "191323.323000",
          "191323.323000",
          "191323.323000",
          "191323.323000",
          "191403.276000",
          "191403.276000",
          "191403.276000",
          "191403.276000",
          "191403.292000",
          "191403.292000",
          "191403.292000",
          "191403.292000",
          "191403.292000",
          "191403.292000",
          "191403.292000",
          "191403.307000",
          "191403.307000",
          "191403.307000",
          "191403.307000",
          "191403.323000",
          "191403.323000",
          "191403.323000",
          "191403.323000",
          "191403.323000",
          "191443.276000",
          "191443.276000",
          "191443.276000",
          "191443.276000",
          "191443.292000",
          "191443.292000",
          "191443.292000",
          "191443.292000",
          "191443.292000",
          "191443.292000",
          "191443.292000",
          "191443.307000",
          "191443.307000",
          "191443.307000",
          "191443.307000",
          "191443.307000",
          "191443.307000",
          "191443.323000",
          "191443.323000",
          "191443.323000",
          "191523.276000",
          "191523.276000",
          "191523.276000",
          "191523.276000",
          "191523.292000",
          "191523.292000",
          "191523.292000",
          "191523.292000",
          "191523.292000",
          "191523.292000",
          "191523.292000",
          "191523.307000",
          "191523.307000",
          "191523.307000",
          "191523.307000",
          "191523.307000",
          "191523.307000",
          "191523.323000",
          "191523.323000",
          "191523.323000",
          "191603.276000",
          "191603.276000",
          "191603.276000",
          "191603.276000",
          "191603.292000",
          "191603.292000",
          "191603.292000",
          "191603.292000",
          "191603.292000",
          "191603.307000",
          "191603.307000",
          "191603.307000",
          "191603.307000",
          "191603.307000",
          "191603.323000",
          "191603.323000",
          "191603.323000",
          "191603.323000",
          "191603.323000",
          "191603.323000",
          "191623.276000",
          "191623.276000",
          "191623.276000",
          "191623.292000",
          "191623.292000",
          "191623.292000",
          "191623.292000",
          "191623.307000",
          "191623.307000",
          "191623.307000",
          "191633.963000",
          "191633.963000",
          "191633.963000",
          "191633.963000",
          "191633.963000",
          "191633.979000"
        ],
        "InstanceNumber": [
          1,
          2,
          3,
          4,
          5,
          6,
          7,
          8,
          9,
          10,
          11,
          12,
          13,
          14,
          15,
          16,
          17,
          18,
          19,
          20,
          21,
          22,
          23,
          24,
          25,
          26,
          27,
          28,
          29,
          30,
          31,
          32,
          33,
          34,
          35,
          36,
          37,
          38,
          39,
          40,
          41,
          42,
          43,
          44,
          45,
          46,
          47,
          48,
          49,
          50,
          51,
          52,
          53,
          54,
          55,
          56,
          57,
          58,
          59,
          60,
          61,
          62,
          63,
          64,
          65,
          66,
          67,
          68,
          69,
          70,
          71,
          72,
          73,
          74,
          75,
          76,
          77,
          78,
          79,
          80,
          81,
          82,
          83,
          84,
          85,
          86,
          87,
          88,
          89,
          90,
          91,
          92,
          93,
          94,
          95,
          96,
          97,
          98,
          99,
          100,
          101,
          102,
          103,
          104,
          105,
          106,
          107,
          108,
          109,
          110,
          111,
          112,
          113,
          114,
          115,
          116,
          117,
          118,
          119,
          120,
          121,
          122,
          123,
          124,
          125,
          126,
          127,
          128,
          129,
          130,
          131,
          132,
          133,
          134,
          135,
          136,
          137,
          138,
          139,
          140,
          141,
          142,
          143,
          144,
          145,
          146,
          147,
          148,
          149,
          150,
          151,
          152,
          153,
          154,
          155,
          156,
          157,
          158,
          159,
          160,
          161,
          162,
          163,
          164
        ],
        "WindowCenter": [
          1190.0,
          1188.0,
          1189.0,
          1190.0,
          1191.0,
          1190.0,
          1190.0,
          1191.0,
          1191.0,
          1191.0,
          1191.0,
          1189.0,
          1188.0,
          1188.0,
          1188.0,
          1187.0,
          1186.0,
          1187.0,
          1189.0,
          1189.0,
          1188.0,
          1189.0,
          1191.0,
          1191.0,
          1191.0,
          1190.0,
          1190.0,
          1191.0,
          1190.0,
          1192.0,
          1191.0,
          1191.0,
          1190.0,
          1189.0,
          1190.0,
          1189.0,
          1191.0,
          1189.0,
          1188.0,
          1187.0,
          1184.0,
          1181.0,
          1181.0,
          1182.0,
          1184.0,
          1187.0,
          1190.0,
          1192.0,
          1193.0,
          1194.0,
          1195.0,
          1194.0,
          1194.0,
          1193.0,
          1194.0,
          1193.0,
          1194.0,
          1196.0,
          1194.0,
          1191.0,
          1191.0,
          1191.0,
          1192.0,
          1193.0,
          1192.0,
          1192.0,
          1194.0,
          1194.0,
          1193.0,
          1192.0,
          1193.0,
          1194.0,
          1194.0,
          1193.0,
          1194.0,
          1192.0,
          1194.0,
          1193.0,
          1190.0,
          1190.0,
          1191.0,
          1191.0,
          1192.0,
          1191.0,
          1190.0,
          1193.0,
          1193.0,
          1194.0,
          1195.0,
          1192.0,
          1192.0,
          1193.0,
          1193.0,
          1191.0,
          1192.0,
          1190.0,
          1191.0,
          1194.0,
          1194.0,
          1190.0,
          1191.0,
          1192.0,
          1193.0,
          1193.0,
          1191.0,
          1190.0,
          1192.0,
          1192.0,
          1191.0,
          1191.0,
          1191.0,
          1190.0,
          1190.0,
          1190.0,
          1189.0,
          1190.0,
          1191.0,
          1191.0,
          1192.0,
          1194.0,
          1193.0,
          1195.0,
          1195.0,
          1196.0,
          1195.0,
          1195.0,
          1194.0,
          1193.0,
          1193.0,
          1193.0,
          1193.0,
          1194.0,
          1193.0,
          1192.0,
          1192.0,
          1193.0,
          1193.0,
          1193.0,
          1192.0,
          1191.0,
          1189.0,
          1188.0,
          1188.0,
          1190.0,
          1191.0,
          1192.0,
          1191.0,
          1191.0,
          1192.0,
          1190.0,
          1190.0,
          1189.0,
          1190.0,
          1191.0,
          1191.0,
          1191.0,
          1191.0,
          1192.0,
          1193.0,
          1191.0,
          1192.0,
          1190.0,
          1194.0,
          1198.0
        ],
        "WindowWidth": [
          2815.0,
          2815.0,
          2819.0,
          2820.0,
          2820.0,
          2817.0,
          2817.0,
          2821.0,
          2820.0,
          2821.0,
          2819.0,
          2815.0,
          2814.0,
          2814.0,
          2815.0,
          2812.0,
          2809.0,
          2813.0,
          2817.0,
          2815.0,
          2814.0,
          2817.0,
          2822.0,
          2822.0,
          2821.0,
          2818.0,
          2821.0,
          2821.0,
          2820.0,
          2822.0,
          2822.0,
          2821.0,
          2818.0,
          2815.0,
          2817.0,
          2817.0,
          2827.0,
          2817.0,
          2812.0,
          2808.0,
          2801.0,
          2792.0,
          2791.0,
          2796.0,
          2802.0,
          2812.0,
          2817.0,
          2821.0,
          2826.0,
          2828.0,
          2830.0,
          2830.0,
          2827.0,
          2826.0,
          2828.0,
          2828.0,
          2831.0,
          2835.0,
          2826.0,
          2821.0,
          2819.0,
          2819.0,
          2822.0,
          2823.0,
          2822.0,
          2825.0,
          2826.0,
          2827.0,
          2826.0,
          2823.0,
          2826.0,
          2829.0,
          2830.0,
          2827.0,
          2825.0,
          2825.0,
          2826.0,
          2824.0,
          2818.0,
          2818.0,
          2821.0,
          2820.0,
