{
  "aor": 0.0019298170731707317,
  "aqi": 0.006584434634146342,
  "bids_meta": {
    "AcquisitionMatrixPE": 96,
    "AcquisitionNumber": 1,
    "AcquisitionTime": "18:29:5.165000",
    "BandwidthPerPixelPhaseEncode": 52.083,
    "BaseResolution": 96,
    "BodyPartExamined": "HEAD",
    "ConversionSoftware": "dcm2niix",
    "ConversionSoftwareVersion": "v1.0.20180622 GCC6.3.0",
    "DerivedVendorReportedEchoSpacing": 0.000600004,
    "DeviceSerialNumber": "18926",
    "DwellTime": 2.6e-06,
    "EchoTime": 0.025,
    "EffectiveEchoSpacing": 0.000200001,
    "FlipAngle": 50,
    "ImageOrientationPatientDICOM": [
      0.999992,
      0.00106204,
      0.00396433,
      2.0017e-10,
      0.965938,
      -0.258774
    ],
    "ImageType": [
      "ORIGINAL",
      "PRIMARY",
      "M",
      "ND",
      "ECHO",
      "00",
      "MOSAIC"
    ],
    "InPlanePhaseEncodingDirectionDICOM": "ROW",
    "InstitutionName": "NIMH",
    "InstitutionalDepartmentName": "Department",
    "MRAcquisitionType": "2D",
    "MagneticFieldStrength": 6.98,
    "Manufacturer": "Siemens",
    "ManufacturersModelName": "Investigational_Device_7T",
    "Modality": "MR",
    "ParallelReductionFactorInPlane": 3,
    "PartialFourier": 1,
    "PatientPosition": "HFS",
    "PercentPhaseFOV": 100,
    "PhaseEncodingDirection": "i",
    "PhaseEncodingSteps": 94,
    "PhaseResolution": 1,
    "PixelBandwidth": 2003,
    "ProcedureStepDescription": "MRI_Procedure_Limited",
    "ProtocolName": "NIH_EPI_2.0iso_TR2_Run02",
    "PulseSequenceDetails": "%CustomerSeq%_inati_nih_epi",
    "ReceiveCoilName": "32Ch_Head_7T",
    "ReconMatrixPE": 96,
    "RepetitionTime": 2,
    "SAR": 0.0802965,
    "ScanningSequence": "EP",
    "SequenceName": "epfid2d1_96",
    "SequenceVariant": "SK",
    "SeriesDescription": "NIH_EPI_2.0iso_TR2_Run02",
    "SeriesNumber": 6,
    "ShimSetting": [
      -68,
      215,
      840,
      1199,
      -267,
      642,
      92,
      -480
    ],
    "SliceThickness": 2,
    "SliceTiming": [
      1.005,
      0,
      1.04,
      0.0375,
      1.0775,
      0.075,
      1.115,
      0.1125,
      1.1525,
      0.1475,
      1.19,
      0.185,
      1.2275,
      0.2225,
      1.265,
      0.26,
      1.3,
      0.2975,
      1.3375,
      0.335,
      1.375,
      0.3725,
      1.4125,
      0.41,
      1.45,
      0.445,
      1.4875,
      0.4825,
      1.525,
      0.52,
      1.5625,
      0.5575,
      1.5975,
      0.595,
      1.635,
      0.6325,
      1.6725,
      0.67,
      1.71,
      0.7075,
      1.7475,
      0.7425,
      1.785,
      0.78,
      1.8225,
      0.8175,
      1.86,
      0.855,
      1.895,
      0.8925,
      1.9325,
      0.93,
      1.97,
      0.9675
    ],
    "SoftwareVersions": "syngo_MR_B17",
    "SpacingBetweenSlices": 2,
    "StationName": "FMRIFD7T",
    "TaskName": "HalfFovNoTask",
    "TotalReadoutTime": 0.0190001,
    "TxRefAmp": 321,
    "dataset": "ds001555",
    "dcmmeta_affine": [
      [
        -1.9999831914901733,
        4.0034059400895217e-10,
        0.008208253420889378,
        95.76705169677734
      ],
      [
        -0.002124078804627061,
        1.9318759441375732,
        -0.517542839050293,
        -54.059513092041016
      ],
      [
        0.007928663864731789,
        0.5175471901893616,
        1.9318597316741943,
        -55.51789474487305
      ],
      [
        0.0,
        0.0,
        0.0,
        1.0
      ]
    ],
    "dcmmeta_reorient_transform": [
      [
        0.0,
        -1.0,
        0.0,
        95.0
      ],
      [
        1.0,
        0.0,
        0.0,
        0.0
      ],
      [
        0.0,
        0.0,
        1.0,
        0.0
      ],
      [
        0.0,
        0.0,
        0.0,
        1.0
      ]
    ],
    "dcmmeta_shape": [
      96,
      96,
      54,
      164
    ],
    "dcmmeta_slice_dim": 2,
    "dcmmeta_version": 0.6,
    "global": {
      "const": {
        "AcquisitionMatrix": [
          0,
          96,
          96,
          0
        ],
        "Allergies": "No Known Allergies",
        "AngioFlag": "N",
        "BitsAllocated": 16,
        "BitsStored": 12,
        "BodyPartExamined": "HEAD",
        "Columns": 768,
        "EchoNumbers": 1,
        "EchoTime": 25.0,
        "EchoTrainLength": 1,
        "FlipAngle": 50.0,
        "HighBit": 11,
        "ImageOrientationPatient": [
          0.99999157803723,
          0.00106203942406,
          0.00396433183257,
          2.001703e-10,
          0.96593800087893,
          -0.2587736046393
        ],
        "ImagePositionPatient": [
          -767.76139276714,
          -779.29273444391,
          164.88092233343
        ],
        "ImageType": [
          "ORIGINAL",
          "PRIMARY",
          "M",
          "ND",
          "ECHO_00",
          "MOSAIC"
        ],
        "ImagedNucleus": "1H",
        "ImagingFrequency": 297.204835,
        "InPlanePhaseEncodingDirection": "ROW",
        "LargestImagePixelValue": 4095,
        "MRAcquisitionType": "2D",
        "MagneticFieldStrength": 6.98,
        "Manufacturer": "SIEMENS",
        "ManufacturerModelName": "Investigational_Device_7T",
        "Modality": "MR",
        "NumberOfAverages": 1.0,
        "NumberOfPhaseEncodingSteps": 94,
        "PercentPhaseFieldOfView": 100.0,
        "PercentSampling": 100.0,
        "PerformedProcedureStepStartTime": "180307.448000",
        "PhotometricInterpretation": "MONOCHROME2",
        "PixelBandwidth": 2003.0,
        "PixelRepresentation": 0,
        "PixelSpacing": [
          2.0,
          2.0
        ],
        "PositionReferenceIndicator": "",
        "ProcedureCodeSequence": [
          {
            "CodeMeaning": "MRI Procedure Limited",
            "CodeValue": "MI01491",
            "CodingSchemeDesignator": "USA Standard",
            "ContextIdentifier": "4000127006"
          }
        ],
        "ProtocolName": "NIH_EPI_2.0iso_TR2_Run02",
        "ReferencedStudySequence": [
          {
            "ReferencedSOPClassUID": "1.2.840.10008.3.1.2.3.1",
            "ReferencedSOPInstanceUID": "1.2.840.113564.9.1.2787814059.53.2.5000092844"
          }
        ],
        "RepetitionTime": 2000.0,
        "RequestedProcedureCodeSequence": [
          {
            "CodeMeaning": "MRI Procedure Limited",
            "CodeValue": "MI01491",
            "CodingSchemeDesignator": "USA Standard",
            "ContextIdentifier": "4000127006"
          }
        ],
        "RequestingService": "NIHM Molecular Imaging Branch",
        "Rows": 768,
        "SAR": 0.08029645587828,
        "SamplesPerPixel": 1,
        "ScanningSequence": "EP",
        "SequenceName": "epfid2d1_96",
        "SequenceVariant": "SK",
        "SeriesDescription": "NIH_EPI_2.0iso_TR2_Run02",
        "SeriesNumber": 6,
        "SliceLocation": -39.244294500806,
        "SliceThickness": 2.0,
        "SmallestImagePixelValue": 0,
        "SoftwareVersions": "syngo MR B17",
        "SpacingBetweenSlices": 1.9999999794435,
        "TransmitCoilName": "32Ch_Head_7T",
        "VariableFlipAngleFlag": "N",
        "WindowCenterWidthExplanation": "Algo1",
        "dBdt": 0.0
      },
      "slices": {}
    },
    "modality": "bold",
    "run_id": 3,
    "session_id": "10",
    "subject_id": "001",
    "task_id": "HalfFovNoTask",
    "time": {
      "samples": {
        "AcquisitionNumber": [
          1,
          2,
          3,
          4,
          5,
          6,
          7,
          8,
          9,
          10,
          11,
          12,
          13,
          14,
          15,
          16,
          17,
          18,
          19,
          20,
          21,
          22,
          23,
          24,
          25,
          26,
          27,
          28,
          29,
          30,
          31,
          32,
          33,
          34,
          35,
          36,
          37,
          38,
          39,
          40,
          41,
          42,
          43,
          44,
          45,
          46,
          47,
          48,
          49,
          50,
          51,
          52,
          53,
          54,
          55,
          56,
          57,
          58,
          59,
          60,
          61,
          62,
          63,
          64,
          65,
          66,
          67,
          68,
          69,
          70,
          71,
          72,
          73,
          74,
          75,
          76,
          77,
          78,
          79,
          80,
          81,
          82,
          83,
          84,
          85,
          86,
          87,
          88,
          89,
          90,
          91,
          92,
          93,
          94,
          95,
          96,
          97,
          98,
          99,
          100,
          101,
          102,
          103,
          104,
          105,
          106,
          107,
          108,
          109,
          110,
          111,
          112,
          113,
          114,
          115,
          116,
          117,
          118,
          119,
          120,
          121,
          122,
          123,
          124,
          125,
          126,
          127,
          128,
          129,
          130,
          131,
          132,
          133,
          134,
          135,
          136,
          137,
          138,
          139,
          140,
          141,
          142,
          143,
          144,
          145,
          146,
          147,
          148,
          149,
          150,
          151,
          152,
          153,
          154,
          155,
          156,
          157,
          158,
          159,
          160,
          161,
          162,
          163,
          164
        ],
        "AcquisitionTime": [
          "182905.165000",
          "182909.180000",
          "182911.187500",
          "182913.195000",
          "182915.205000",
          "182917.212500",
          "182919.220000",
          "182921.227500",
          "182923.235000",
          "182925.245000",
          "182927.252500",
          "182929.260000",
          "182931.267500",
          "182933.277500",
          "182935.285000",
          "182937.292500",
          "182939.300000",
          "182941.307500",
          "182943.317500",
          "182945.325000",
          "182947.332500",
          "182949.340000",
          "182951.347500",
          "182953.357500",
          "182955.365000",
          "182957.372500",
          "182959.380000",
          "183001.387500",
          "183003.397500",
          "183005.405000",
          "183007.412500",
          "183009.420000",
          "183011.430000",
          "183013.437500",
          "183015.445000",
          "183017.452500",
          "183019.460000",
          "183021.470000",
          "183023.477500",
          "183025.485000",
          "183027.492500",
          "183029.500000",
          "183031.510000",
          "183033.517500",
          "183035.525000",
          "183037.532500",
          "183039.542500",
          "183041.550000",
          "183043.557500",
          "183045.565000",
          "183047.572500",
          "183049.582500",
          "183051.590000",
          "183053.597500",
          "183055.605000",
          "183057.612500",
          "183059.622500",
          "183101.630000",
          "183103.637500",
          "183105.645000",
          "183107.655000",
          "183109.662500",
          "183111.670000",
          "183113.677500",
          "183115.685000",
          "183117.695000",
          "183119.702500",
          "183121.710000",
          "183123.717500",
          "183125.725000",
          "183127.735000",
          "183129.742500",
          "183131.750000",
          "183133.757500",
          "183135.765000",
          "183137.775000",
          "183139.782500",
          "183141.790000",
          "183143.797500",
          "183145.807500",
          "183147.815000",
          "183149.822500",
          "183151.830000",
          "183153.837500",
          "183155.847500",
          "183157.855000",
          "183159.862500",
          "183201.870000",
          "183203.877500",
          "183205.887500",
          "183207.895000",
          "183209.902500",
          "183211.910000",
          "183213.920000",
          "183215.927500",
          "183217.935000",
          "183219.942500",
          "183221.950000",
          "183223.960000",
          "183225.967500",
          "183227.975000",
          "183229.982500",
          "183231.990000",
          "183234.000000",
          "183236.007500",
          "183238.015000",
          "183240.022500",
          "183242.032500",
          "183244.040000",
          "183246.047500",
          "183248.055000",
          "183250.062500",
          "183252.072500",
          "183254.080000",
          "183256.087500",
          "183258.095000",
          "183300.102500",
          "183302.112500",
          "183304.120000",
          "183306.127500",
          "183308.135000",
          "183310.142500",
          "183312.152500",
          "183314.160000",
          "183316.167500",
          "183318.175000",
          "183320.185000",
          "183322.192500",
          "183324.200000",
          "183326.207500",
          "183328.215000",
          "183330.225000",
          "183332.232500",
          "183334.240000",
          "183336.247500",
          "183338.255000",
          "183340.265000",
          "183342.272500",
          "183344.280000",
          "183346.287500",
          "183348.297500",
          "183350.305000",
          "183352.312500",
          "183354.320000",
          "183356.327500",
          "183358.337500",
          "183400.345000",
          "183402.352500",
          "183404.360000",
          "183406.367500",
          "183408.377500",
          "183410.385000",
          "183412.392500",
          "183414.400000",
          "183416.410000",
          "183418.417500",
          "183420.425000",
          "183422.432500",
          "183424.440000",
          "183426.450000",
          "183428.457500",
          "183430.465000",
          "183432.472500",
          "183434.480000"
        ],
        "ContentTime": [
          "183003.292000",
          "183003.292000",
          "183003.307000",
          "183003.307000",
          "183003.307000",
          "183003.307000",
          "183003.307000",
          "183003.307000",
          "183003.323000",
          "183003.323000",
          "183003.323000",
          "183003.323000",
          "183003.323000",
          "183003.323000",
          "183003.338000",
          "183003.338000",
          "183003.338000",
          "183003.338000",
          "183003.338000",
          "183003.338000",
          "183003.338000",
          "183003.354000",
          "183003.354000",
          "183003.354000",
          "183003.354000",
          "183003.354000",
          "183003.354000",
          "183003.370000",
          "183043.276000",
          "183043.276000",
          "183043.292000",
          "183043.292000",
          "183043.292000",
          "183043.292000",
          "183043.292000",
          "183043.292000",
          "183043.307000",
          "183043.307000",
          "183043.307000",
          "183043.307000",
          "183043.323000",
          "183043.323000",
          "183043.323000",
          "183043.323000",
          "183043.323000",
          "183043.323000",
          "183043.323000",
          "183043.338000",
          "183123.276000",
          "183123.276000",
          "183123.292000",
          "183123.292000",
          "183123.292000",
          "183123.292000",
          "183123.292000",
          "183123.292000",
          "183123.292000",
          "183123.307000",
          "183123.307000",
          "183123.307000",
          "183123.307000",
          "183123.307000",
          "183123.307000",
          "183123.323000",
          "183123.323000",
          "183123.323000",
          "183123.323000",
          "183123.323000",
          "183203.276000",
          "183203.276000",
          "183203.276000",
          "183203.276000",
          "183203.292000",
          "183203.292000",
          "183203.292000",
          "183203.292000",
          "183203.292000",
          "183203.292000",
          "183203.307000",
          "183203.307000",
          "183203.307000",
          "183203.323000",
          "183203.323000",
          "183203.323000",
          "183203.323000",
          "183203.323000",
          "183203.323000",
          "183203.338000",
          "183243.276000",
          "183243.276000",
          "183243.276000",
          "183243.276000",
          "183243.292000",
          "183243.292000",
          "183243.292000",
          "183243.292000",
          "183243.307000",
          "183243.307000",
          "183243.307000",
          "183243.307000",
          "183243.307000",
          "183243.307000",
          "183243.323000",
          "183243.323000",
          "183243.323000",
          "183243.323000",
          "183243.323000",
          "183243.323000",
          "183323.276000",
          "183323.276000",
          "183323.276000",
          "183323.276000",
          "183323.292000",
          "183323.292000",
          "183323.292000",
          "183323.292000",
          "183323.292000",
          "183323.292000",
          "183323.292000",
          "183323.307000",
          "183323.307000",
          "183323.307000",
          "183323.323000",
          "183323.323000",
          "183323.323000",
          "183323.323000",
          "183323.323000",
          "183323.323000",
          "183403.276000",
          "183403.276000",
          "183403.276000",
          "183403.292000",
          "183403.292000",
          "183403.292000",
          "183403.307000",
          "183403.307000",
          "183403.307000",
          "183403.307000",
          "183403.307000",
          "183403.307000",
          "183403.323000",
          "183403.323000",
          "183403.323000",
          "183403.323000",
          "183403.323000",
          "183403.323000",
          "183403.338000",
          "183403.338000",
          "183434.963000",
          "183434.963000",
          "183434.963000",
          "183434.979000",
          "183434.979000",
          "183434.979000",
          "183434.979000",
          "183434.995000",
          "183434.995000",
          "183434.995000",
          "183434.995000",
          "183434.995000",
          "183434.995000",
          "183434.995000",
          "183435.010000",
          "183435.010000"
        ],
        "InstanceCreationTime": [
          "183003.292000",
          "183003.292000",
          "183003.307000",
          "183003.307000",
          "183003.307000",
          "183003.307000",
          "183003.307000",
          "183003.307000",
          "183003.323000",
          "183003.323000",
          "183003.323000",
          "183003.323000",
          "183003.323000",
          "183003.323000",
          "183003.338000",
          "183003.338000",
          "183003.338000",
          "183003.338000",
          "183003.338000",
          "183003.338000",
          "183003.338000",
          "183003.354000",
          "183003.354000",
          "183003.354000",
          "183003.354000",
          "183003.354000",
          "183003.354000",
          "183003.370000",
          "183043.276000",
          "183043.276000",
          "183043.292000",
          "183043.292000",
          "183043.292000",
          "183043.292000",
          "183043.292000",
          "183043.292000",
          "183043.307000",
          "183043.307000",
          "183043.307000",
          "183043.307000",
          "183043.323000",
          "183043.323000",
          "183043.323000",
          "183043.323000",
          "183043.323000",
          "183043.323000",
          "183043.323000",
          "183043.338000",
          "183123.276000",
          "183123.276000",
          "183123.292000",
          "183123.292000",
          "183123.292000",
          "183123.292000",
          "183123.292000",
          "183123.292000",
          "183123.292000",
          "183123.307000",
          "183123.307000",
          "183123.307000",
          "183123.307000",
          "183123.307000",
          "183123.307000",
          "183123.323000",
          "183123.323000",
          "183123.323000",
          "183123.323000",
          "183123.323000",
          "183203.276000",
          "183203.276000",
          "183203.276000",
          "183203.276000",
          "183203.292000",
          "183203.292000",
          "183203.292000",
          "183203.292000",
          "183203.292000",
          "183203.292000",
          "183203.307000",
          "183203.307000",
          "183203.307000",
          "183203.323000",
          "183203.323000",
          "183203.323000",
          "183203.323000",
          "183203.323000",
          "183203.323000",
          "183203.338000",
          "183243.276000",
          "183243.276000",
          "183243.276000",
          "183243.276000",
          "183243.292000",
          "183243.292000",
          "183243.292000",
          "183243.292000",
          "183243.307000",
          "183243.307000",
          "183243.307000",
          "183243.307000",
          "183243.307000",
          "183243.307000",
          "183243.323000",
          "183243.323000",
          "183243.323000",
          "183243.323000",
          "183243.323000",
          "183243.323000",
          "183323.276000",
          "183323.276000",
          "183323.276000",
          "183323.276000",
          "183323.292000",
          "183323.292000",
          "183323.292000",
          "183323.292000",
          "183323.292000",
          "183323.292000",
          "183323.292000",
          "183323.307000",
          "183323.307000",
          "183323.307000",
          "183323.323000",
          "183323.323000",
          "183323.323000",
          "183323.323000",
          "183323.323000",
          "183323.323000",
          "183403.276000",
          "183403.276000",
          "183403.276000",
          "183403.292000",
          "183403.292000",
          "183403.292000",
          "183403.307000",
          "183403.307000",
          "183403.307000",
          "183403.307000",
          "183403.307000",
          "183403.307000",
          "183403.323000",
          "183403.323000",
          "183403.323000",
          "183403.323000",
          "183403.323000",
          "183403.323000",
          "183403.338000",
          "183403.338000",
          "183434.963000",
          "183434.963000",
          "183434.963000",
          "183434.979000",
          "183434.979000",
          "183434.979000",
          "183434.979000",
          "183434.995000",
          "183434.995000",
          "183434.995000",
          "183434.995000",
          "183434.995000",
          "183434.995000",
          "183434.995000",
          "183435.010000",
          "183435.010000"
        ],
        "InstanceNumber": [
          1,
          2,
          3,
          4,
          5,
          6,
          7,
          8,
          9,
          10,
          11,
          12,
          13,
          14,
          15,
          16,
          17,
          18,
          19,
          20,
          21,
          22,
          23,
          24,
          25,
          26,
          27,
          28,
          29,
          30,
          31,
          32,
          33,
          34,
          35,
          36,
          37,
          38,
          39,
          40,
          41,
          42,
          43,
          44,
          45,
          46,
          47,
          48,
          49,
          50,
          51,
          52,
          53,
          54,
          55,
          56,
          57,
          58,
          59,
          60,
          61,
          62,
          63,
          64,
          65,
          66,
          67,
          68,
          69,
          70,
          71,
          72,
          73,
          74,
          75,
          76,
          77,
          78,
          79,
          80,
          81,
          82,
          83,
          84,
          85,
          86,
          87,
          88,
          89,
          90,
          91,
          92,
          93,
          94,
          95,
          96,
          97,
          98,
          99,
          100,
          101,
          102,
          103,
          104,
          105,
          106,
          107,
          108,
          109,
          110,
          111,
          112,
          113,
          114,
          115,
          116,
          117,
          118,
          119,
          120,
          121,
          122,
          123,
          124,
          125,
          126,
          127,
          128,
          129,
          130,
          131,
          132,
          133,
          134,
          135,
          136,
          137,
          138,
          139,
          140,
          141,
          142,
          143,
          144,
          145,
          146,
          147,
          148,
          149,
          150,
          151,
          152,
          153,
          154,
          155,
          156,
          157,
          158,
          159,
          160,
          161,
          162,
          163,
          164
        ],
        "WindowCenter": [
          1180.0,
          1177.0,
          1177.0,
          1178.0,
          1176.0,
          1178.0,
          1180.0,
          1180.0,
          1179.0,
          1177.0,
          1177.0,
          1178.0,
          1177.0,
          1177.0,
          1179.0,
          1178.0,
          1175.0,
          1175.0,
          1176.0,
          1175.0,
          1177.0,
          1176.0,
          1178.0,
          1179.0,
          1176.0,
          1176.0,
          1177.0,
          1177.0,
          1176.0,
          1178.0,
          1176.0,
          1176.0,
          1176.0,
          1173.0,
          1174.0,
          1173.0,
          1174.0,
          1175.0,
          1174.0,
          1177.0,
          1178.0,
          1178.0,
          1179.0,
          1178.0,
          1176.0,
          1177.0,
          1178.0,
          1179.0,
          1179.0,
          1179.0,
          1179.0,
          1179.0,
          1179.0,
          1181.0,
          1181.0,
          1179.0,
          1178.0,
          1180.0,
          1181.0,
          1179.0,
          1177.0,
          1177.0,
          1178.0,
          1177.0,
          1179.0,
          1180.0,
          1179.0,
          1178.0,
          1178.0,
          1178.0,
          1178.0,
          1179.0,
          1179.0,
          1179.0,
          1179.0,
          1180.0,
          1179.0,
          1180.0,
          1179.0,
          1180.0,
          1180.0,
          1179.0,
          1178.0,
          1178.0,
          1178.0,
          1179.0,
          1179.0,
          1183.0,
          1183.0,
          1183.0,
          1180.0,
          1179.0,
          1179.0,
          1180.0,
          1181.0,
          1183.0,
          1182.0,
          1183.0,
          1183.0,
          1182.0,
          1183.0,
          1185.0,
          1184.0,
          1182.0,
          1181.0,
          1182.0,
          1182.0,
          1181.0,
          1181.0,
          1183.0,
          1183.0,
          1182.0,
          1182.0,
          1182.0,
          1181.0,
          1179.0,
          1180.0,
          1182.0,
          1183.0,
          1183.0,
          1182.0,
          1183.0,
          1185.0,
          1184.0,
          1183.0,
          1183.0,
          1179.0,
          1181.0,
          1180.0,
          1179.0,
          1179.0,
          1177.0,
          1178.0,
          1179.0,
          1179.0,
          1180.0,
          1181.0,
          1181.0,
          1183.0,
          1183.0,
          1182.0,
          1183.0,
          1183.0,
          1184.0,
          1185.0,
          1184.0,
          1183.0,
          1183.0,
          1184.0,
          1184.0,
          1182.0,
          1182.0,
          1183.0,
          1182.0,
          1183.0,
          1181.0,
          1181.0,
          1182.0,
          1182.0,
          1180.0,
          1181.0,
          1183.0,
          1182.0,
          1181.0
        ],
        "WindowWidth": [
          2813.0,
          2808.0,
          2809.0,
          2808.0,
          2805.0,
          2811.0,
          2818.0,
          2816.0,
          2810.0,
          2806.0,
          2809.0,
          2810.0,
          2808.0,
          2809.0,
          2810.0,
          2808.0,
          2803.0,
          2802.0,
          2802.0,
          2802.0,
          2804.0,
          2805.0,
          2811.0,
          2811.0,
          2801.0,
          2803.0,
          2807.0,
          2804.0,
          2804.0,
          2807.0,
          2805.0,
          2805.0,
          2801.0,
          2797.0,
          2799.0,
          2797.0,
          2797.0,
          2800.0,
          2800.0,
          2805.0,
          2809.0,
          2808.0,
          2809.0,
          2806.0,
          2801.0,
          2805.0,
          2808.0,
          2810.0,
          2812.0,
          2810.0,
          2808.0,
          2812.0,
          2812.0,
          2818.0,
          2817.0,
          2811.0,
          2811.0,
          2816.0,
          2815.0,
          2811.0,
          2806.0,
          2805.0,
          2807.0,
          2807.0,
          2810.0,
          2812.0,
          2809.0,
          2807.0,
          2806.0,
          2806.0,
          2810.0,
          2810.0,
          2810.0,
          2809.0,
          2813.0,
          2811.0,
          2810.0,
          2812.0,
          2810.0,
          2810.0,
          2812.0,
          2808.0,
