{
  "aor": 0.0078107926829268275,
  "aqi": 0.005301274695121951,
  "bids_meta": {
    "AcquisitionMatrixPE": 96,
    "AcquisitionNumber": 1,
    "AcquisitionTime": "19:32:4.767500",
    "BandwidthPerPixelPhaseEncode": 52.083,
    "BaseResolution": 96,
    "BodyPartExamined": "HEAD",
    "ConversionSoftware": "dcm2niix",
    "ConversionSoftwareVersion": "v1.0.20180622 GCC6.3.0",
    "DerivedVendorReportedEchoSpacing": 0.000600004,
    "DeviceSerialNumber": "18926",
    "DwellTime": 2.6e-06,
    "EchoTime": 0.025,
    "EffectiveEchoSpacing": 0.000200001,
    "FlipAngle": 50,
    "ImageOrientationPatientDICOM": [
      0.999992,
      0.00106204,
      0.00396433,
      2.0017e-10,
      0.965938,
      -0.258774
    ],
    "ImageType": [
      "ORIGINAL",
      "PRIMARY",
      "M",
      "ND",
      "ECHO",
      "00",
      "MOSAIC"
    ],
    "InPlanePhaseEncodingDirectionDICOM": "ROW",
    "InstitutionName": "NIMH",
    "InstitutionalDepartmentName": "Department",
    "MRAcquisitionType": "2D",
    "MagneticFieldStrength": 6.98,
    "Manufacturer": "Siemens",
    "ManufacturersModelName": "Investigational_Device_7T",
    "Modality": "MR",
    "ParallelReductionFactorInPlane": 3,
    "PartialFourier": 1,
    "PatientPosition": "HFS",
    "PercentPhaseFOV": 100,
    "PhaseEncodingDirection": "i",
    "PhaseEncodingSteps": 94,
    "PhaseResolution": 1,
    "PixelBandwidth": 2003,
    "ProcedureStepDescription": "MRI_Procedure_Limited",
    "ProtocolName": "NIH_EPI_2.0iso_TR2_Run11",
    "PulseSequenceDetails": "%CustomerSeq%_inati_nih_epi",
    "ReceiveCoilName": "32Ch_Head_7T",
    "ReconMatrixPE": 96,
    "RepetitionTime": 2,
    "SAR": 0.0802965,
    "ScanningSequence": "EP",
    "SequenceName": "epfid2d1_96",
    "SequenceVariant": "SK",
    "SeriesDescription": "NIH_EPI_2.0iso_TR2_Run11",
    "SeriesNumber": 15,
    "ShimSetting": [
      -68,
      215,
      840,
      1199,
      -267,
      642,
      92,
      -480
    ],
    "SliceThickness": 2,
    "SliceTiming": [
      1.005,
      0,
      1.0425,
      0.0375,
      1.08,
      0.075,
      1.1175,
      0.1125,
      1.1525,
      0.15,
      1.19,
      0.1875,
      1.2275,
      0.225,
      1.265,
      0.2625,
      1.3025,
      0.2975,
      1.34,
      0.335,
      1.3775,
      0.3725,
      1.415,
      0.41,
      1.45,
      0.4475,
      1.4875,
      0.485,
      1.525,
      0.5225,
      1.5625,
      0.56,
      1.6,
      0.595,
      1.6375,
      0.6325,
      1.675,
      0.67,
      1.7125,
      0.7075,
      1.7475,
      0.745,
      1.785,
      0.7825,
      1.8225,
      0.82,
      1.86,
      0.8575,
      1.8975,
      0.8925,
      1.935,
      0.93,
      1.9725,
      0.9675
    ],
    "SoftwareVersions": "syngo_MR_B17",
    "SpacingBetweenSlices": 2,
    "StationName": "FMRIFD7T",
    "TaskName": "HalfFovNoTask",
    "TotalReadoutTime": 0.0190001,
    "TxRefAmp": 321,
    "dataset": "ds001555",
    "dcmmeta_affine": [
      [
        -1.9999831914901733,
        4.0034059400895217e-10,
        0.008208253420889378,
        95.76705169677734
      ],
      [
        -0.002124078804627061,
        1.9318759441375732,
        -0.517542839050293,
        -54.059513092041016
      ],
      [
        0.007928663864731789,
        0.5175471901893616,
        1.9318597316741943,
        -55.51789474487305
      ],
      [
        0.0,
        0.0,
        0.0,
        1.0
      ]
    ],
    "dcmmeta_reorient_transform": [
      [
        0.0,
        -1.0,
        0.0,
        95.0
      ],
      [
        1.0,
        0.0,
        0.0,
        0.0
      ],
      [
        0.0,
        0.0,
        1.0,
        0.0
      ],
      [
        0.0,
        0.0,
        0.0,
        1.0
      ]
    ],
    "dcmmeta_shape": [
      96,
      96,
      54,
      164
    ],
    "dcmmeta_slice_dim": 2,
    "dcmmeta_version": 0.6,
    "global": {
      "const": {
        "AcquisitionMatrix": [
          0,
          96,
          96,
          0
        ],
        "Allergies": "No Known Allergies",
        "AngioFlag": "N",
        "BitsAllocated": 16,
        "BitsStored": 12,
        "BodyPartExamined": "HEAD",
        "Columns": 768,
        "EchoNumbers": 1,
        "EchoTime": 25.0,
        "EchoTrainLength": 1,
        "FlipAngle": 50.0,
        "HighBit": 11,
        "ImageOrientationPatient": [
          0.99999157803723,
          0.00106203942406,
          0.00396433183257,
          2.001703e-10,
          0.96593800087893,
          -0.2587736046393
        ],
        "ImagePositionPatient": [
          -767.76139276714,
          -779.29273444391,
          164.88092233343
        ],
        "ImageType": [
          "ORIGINAL",
          "PRIMARY",
          "M",
          "ND",
          "ECHO_00",
          "MOSAIC"
        ],
        "ImagedNucleus": "1H",
        "ImagingFrequency": 297.205007,
        "InPlanePhaseEncodingDirection": "ROW",
        "LargestImagePixelValue": 4095,
        "MRAcquisitionType": "2D",
        "MagneticFieldStrength": 6.98,
        "Manufacturer": "SIEMENS",
        "ManufacturerModelName": "Investigational_Device_7T",
        "Modality": "MR",
        "NumberOfAverages": 1.0,
        "NumberOfPhaseEncodingSteps": 94,
        "PercentPhaseFieldOfView": 100.0,
        "PercentSampling": 100.0,
        "PerformedProcedureStepStartTime": "180307.448000",
        "PhotometricInterpretation": "MONOCHROME2",
        "PixelBandwidth": 2003.0,
        "PixelRepresentation": 0,
        "PixelSpacing": [
          2.0,
          2.0
        ],
        "PositionReferenceIndicator": "",
        "ProcedureCodeSequence": [
          {
            "CodeMeaning": "MRI Procedure Limited",
            "CodeValue": "MI01491",
            "CodingSchemeDesignator": "USA Standard",
            "ContextIdentifier": "4000127006"
          }
        ],
        "ProtocolName": "NIH_EPI_2.0iso_TR2_Run11",
        "ReferencedStudySequence": [
          {
            "ReferencedSOPClassUID": "1.2.840.10008.3.1.2.3.1",
            "ReferencedSOPInstanceUID": "1.2.840.113564.9.1.2787814059.53.2.5000092844"
          }
        ],
        "RepetitionTime": 2000.0,
        "RequestedProcedureCodeSequence": [
          {
            "CodeMeaning": "MRI Procedure Limited",
            "CodeValue": "MI01491",
            "CodingSchemeDesignator": "USA Standard",
            "ContextIdentifier": "4000127006"
          }
        ],
        "RequestingService": "NIHM Molecular Imaging Branch",
        "Rows": 768,
        "SAR": 0.08029645587828,
        "SamplesPerPixel": 1,
        "ScanningSequence": "EP",
        "SequenceName": "epfid2d1_96",
        "SequenceVariant": "SK",
        "SeriesDescription": "NIH_EPI_2.0iso_TR2_Run11",
        "SeriesNumber": 15,
        "SliceLocation": -39.244294500806,
        "SliceThickness": 2.0,
        "SmallestImagePixelValue": 0,
        "SoftwareVersions": "syngo MR B17",
        "SpacingBetweenSlices": 1.9999999794435,
        "TransmitCoilName": "32Ch_Head_7T",
        "VariableFlipAngleFlag": "N",
        "WindowCenterWidthExplanation": "Algo1",
        "dBdt": 0.0
      },
      "slices": {}
    },
    "modality": "bold",
    "run_id": 12,
    "session_id": "10",
    "subject_id": "001",
    "task_id": "HalfFovNoTask",
    "time": {
      "samples": {
        "AcquisitionNumber": [
          1,
          2,
          3,
          4,
          5,
          6,
          7,
          8,
          9,
          10,
          11,
          12,
          13,
          14,
          15,
          16,
          17,
          18,
          19,
          20,
          21,
          22,
          23,
          24,
          25,
          26,
          27,
          28,
          29,
          30,
          31,
          32,
          33,
          34,
          35,
          36,
          37,
          38,
          39,
          40,
          41,
          42,
          43,
          44,
          45,
          46,
          47,
          48,
          49,
          50,
          51,
          52,
          53,
          54,
          55,
          56,
          57,
          58,
          59,
          60,
          61,
          62,
          63,
          64,
          65,
          66,
          67,
          68,
          69,
          70,
          71,
          72,
          73,
          74,
          75,
          76,
          77,
          78,
          79,
          80,
          81,
          82,
          83,
          84,
          85,
          86,
          87,
          88,
          89,
          90,
          91,
          92,
          93,
          94,
          95,
          96,
          97,
          98,
          99,
          100,
          101,
          102,
          103,
          104,
          105,
          106,
          107,
          108,
          109,
          110,
          111,
          112,
          113,
          114,
          115,
          116,
          117,
          118,
          119,
          120,
          121,
          122,
          123,
          124,
          125,
          126,
          127,
          128,
          129,
          130,
          131,
          132,
          133,
          134,
          135,
          136,
          137,
          138,
          139,
          140,
          141,
          142,
          143,
          144,
          145,
          146,
          147,
          148,
          149,
          150,
          151,
          152,
          153,
          154,
          155,
          156,
          157,
          158,
          159,
          160,
          161,
          162,
          163,
          164
        ],
        "AcquisitionTime": [
          "193204.767500",
          "193208.782500",
          "193210.792500",
          "193212.800000",
          "193214.807500",
          "193216.815000",
          "193218.822500",
          "193220.832500",
          "193222.840000",
          "193224.847500",
          "193226.855000",
          "193228.865000",
          "193230.872500",
          "193232.880000",
          "193234.887500",
          "193236.895000",
          "193238.905000",
          "193240.912500",
          "193242.920000",
          "193244.927500",
          "193246.935000",
          "193248.945000",
          "193250.952500",
          "193252.960000",
          "193254.967500",
          "193256.977500",
          "193258.985000",
          "193300.992500",
          "193303.000000",
          "193305.007500",
          "193307.017500",
          "193309.025000",
          "193311.032500",
          "193313.040000",
          "193315.047500",
          "193317.057500",
          "193319.065000",
          "193321.072500",
          "193323.080000",
          "193325.090000",
          "193327.097500",
          "193329.105000",
          "193331.112500",
          "193333.120000",
          "193335.130000",
          "193337.137500",
          "193339.145000",
          "193341.152500",
          "193343.160000",
          "193345.170000",
          "193347.177500",
          "193349.185000",
          "193351.192500",
          "193353.200000",
          "193355.210000",
          "193357.217500",
          "193359.225000",
          "193401.232500",
          "193403.242500",
          "193405.250000",
          "193407.257500",
          "193409.265000",
          "193411.272500",
          "193413.282500",
          "193415.290000",
          "193417.297500",
          "193419.305000",
          "193421.312500",
          "193423.322500",
          "193425.330000",
          "193427.337500",
          "193429.345000",
          "193431.355000",
          "193433.362500",
          "193435.370000",
          "193437.377500",
          "193439.385000",
          "193441.395000",
          "193443.402500",
          "193445.410000",
          "193447.417500",
          "193449.425000",
          "193451.435000",
          "193453.442500",
          "193455.450000",
          "193457.457500",
          "193459.467500",
          "193501.475000",
          "193503.482500",
          "193505.490000",
          "193507.497500",
          "193509.507500",
          "193511.515000",
          "193513.522500",
          "193515.530000",
          "193517.537500",
          "193519.547500",
          "193521.555000",
          "193523.562500",
          "193525.570000",
          "193527.580000",
          "193529.587500",
          "193531.595000",
          "193533.602500",
          "193535.610000",
          "193537.620000",
          "193539.627500",
          "193541.635000",
          "193543.642500",
          "193545.650000",
          "193547.660000",
          "193549.667500",
          "193551.675000",
          "193553.682500",
          "193555.690000",
          "193557.700000",
          "193559.707500",
          "193601.715000",
          "193603.722500",
          "193605.732500",
          "193607.740000",
          "193609.747500",
          "193611.755000",
          "193613.762500",
          "193615.772500",
          "193617.780000",
          "193619.787500",
          "193621.795000",
          "193623.802500",
          "193625.812500",
          "193627.820000",
          "193629.827500",
          "193631.835000",
          "193633.845000",
          "193635.852500",
          "193637.860000",
          "193639.867500",
          "193641.875000",
          "193643.885000",
          "193645.892500",
          "193647.900000",
          "193649.907500",
          "193651.915000",
          "193653.925000",
          "193655.932500",
          "193657.940000",
          "193659.947500",
          "193701.957500",
          "193703.965000",
          "193705.972500",
          "193707.980000",
          "193709.987500",
          "193711.997500",
          "193714.005000",
          "193716.012500",
          "193718.020000",
          "193720.027500",
          "193722.037500",
          "193724.045000",
          "193726.052500",
          "193728.060000",
          "193730.067500",
          "193732.077500",
          "193734.085000"
        ],
        "ContentTime": [
          "193303.292000",
          "193303.292000",
          "193303.292000",
          "193303.292000",
          "193303.292000",
          "193303.307000",
          "193303.307000",
          "193303.307000",
          "193303.323000",
          "193303.323000",
          "193303.323000",
          "193303.323000",
          "193303.323000",
          "193303.323000",
          "193303.323000",
          "193303.338000",
          "193303.338000",
          "193303.338000",
          "193303.338000",
          "193303.338000",
          "193303.338000",
          "193303.354000",
          "193303.354000",
          "193303.354000",
          "193303.354000",
          "193303.354000",
          "193303.354000",
          "193303.354000",
          "193343.276000",
          "193343.276000",
          "193343.276000",
          "193343.292000",
          "193343.292000",
          "193343.292000",
          "193343.292000",
          "193343.292000",
          "193343.292000",
          "193343.292000",
          "193343.307000",
          "193343.307000",
          "193343.307000",
          "193343.307000",
          "193343.307000",
          "193343.307000",
          "193343.307000",
          "193343.323000",
          "193343.323000",
          "193343.323000",
          "193423.276000",
          "193423.276000",
          "193423.276000",
          "193423.292000",
          "193423.292000",
          "193423.292000",
          "193423.292000",
          "193423.307000",
          "193423.307000",
          "193423.307000",
          "193423.307000",
          "193423.307000",
          "193423.307000",
          "193423.323000",
          "193423.323000",
          "193423.323000",
          "193423.323000",
          "193423.323000",
          "193423.323000",
          "193423.323000",
          "193503.276000",
          "193503.276000",
          "193503.276000",
          "193503.292000",
          "193503.292000",
          "193503.292000",
          "193503.307000",
          "193503.307000",
          "193503.307000",
          "193503.307000",
          "193503.307000",
          "193503.307000",
          "193503.307000",
          "193503.323000",
          "193503.323000",
          "193503.323000",
          "193503.323000",
          "193503.323000",
          "193503.323000",
          "193503.323000",
          "193543.276000",
          "193543.276000",
          "193543.276000",
          "193543.292000",
          "193543.292000",
          "193543.292000",
          "193543.292000",
          "193543.292000",
          "193543.292000",
          "193543.292000",
          "193543.307000",
          "193543.307000",
          "193543.307000",
          "193543.307000",
          "193543.323000",
          "193543.323000",
          "193543.323000",
          "193543.323000",
          "193543.323000",
          "193543.323000",
          "193623.276000",
          "193623.276000",
          "193623.276000",
          "193623.292000",
          "193623.292000",
          "193623.292000",
          "193623.292000",
          "193623.292000",
          "193623.307000",
          "193623.307000",
          "193623.307000",
          "193623.307000",
          "193623.307000",
          "193623.323000",
          "193623.323000",
          "193623.323000",
          "193623.323000",
          "193623.323000",
          "193623.323000",
          "193623.323000",
          "193703.276000",
          "193703.276000",
          "193703.276000",
          "193703.276000",
          "193703.292000",
          "193703.292000",
          "193703.292000",
          "193703.292000",
          "193703.307000",
          "193703.307000",
          "193703.307000",
          "193703.307000",
          "193703.307000",
          "193703.307000",
          "193703.323000",
          "193703.323000",
          "193703.323000",
          "193703.323000",
          "193703.323000",
          "193703.323000",
          "193734.635000",
          "193734.635000",
          "193734.635000",
          "193734.651000",
          "193734.651000",
          "193734.651000",
          "193734.651000",
          "193734.651000",
          "193734.667000",
          "193734.667000",
          "193734.667000",
          "193734.667000",
          "193734.667000",
          "193734.667000",
          "193734.667000",
          "193734.682000"
        ],
        "InstanceCreationTime": [
          "193303.292000",
          "193303.292000",
          "193303.292000",
          "193303.292000",
          "193303.292000",
          "193303.307000",
          "193303.307000",
          "193303.307000",
          "193303.323000",
          "193303.323000",
          "193303.323000",
          "193303.323000",
          "193303.323000",
          "193303.323000",
          "193303.323000",
          "193303.338000",
          "193303.338000",
          "193303.338000",
          "193303.338000",
          "193303.338000",
          "193303.338000",
          "193303.354000",
          "193303.354000",
          "193303.354000",
          "193303.354000",
          "193303.354000",
          "193303.354000",
          "193303.354000",
          "193343.276000",
          "193343.276000",
          "193343.276000",
          "193343.292000",
          "193343.292000",
          "193343.292000",
          "193343.292000",
          "193343.292000",
          "193343.292000",
          "193343.292000",
          "193343.307000",
          "193343.307000",
          "193343.307000",
          "193343.307000",
          "193343.307000",
          "193343.307000",
          "193343.307000",
          "193343.323000",
          "193343.323000",
          "193343.323000",
          "193423.276000",
          "193423.276000",
          "193423.276000",
          "193423.292000",
          "193423.292000",
          "193423.292000",
          "193423.292000",
          "193423.307000",
          "193423.307000",
          "193423.307000",
          "193423.307000",
          "193423.307000",
          "193423.307000",
          "193423.323000",
          "193423.323000",
          "193423.323000",
          "193423.323000",
          "193423.323000",
          "193423.323000",
          "193423.323000",
          "193503.276000",
          "193503.276000",
          "193503.276000",
          "193503.292000",
          "193503.292000",
          "193503.292000",
          "193503.307000",
          "193503.307000",
          "193503.307000",
          "193503.307000",
          "193503.307000",
          "193503.307000",
          "193503.307000",
          "193503.323000",
          "193503.323000",
          "193503.323000",
          "193503.323000",
          "193503.323000",
          "193503.323000",
          "193503.323000",
          "193543.276000",
          "193543.276000",
          "193543.276000",
          "193543.292000",
          "193543.292000",
          "193543.292000",
          "193543.292000",
          "193543.292000",
          "193543.292000",
          "193543.292000",
          "193543.307000",
          "193543.307000",
          "193543.307000",
          "193543.307000",
          "193543.323000",
          "193543.323000",
          "193543.323000",
          "193543.323000",
          "193543.323000",
          "193543.323000",
          "193623.276000",
          "193623.276000",
          "193623.276000",
          "193623.292000",
          "193623.292000",
          "193623.292000",
          "193623.292000",
          "193623.292000",
          "193623.307000",
          "193623.307000",
          "193623.307000",
          "193623.307000",
          "193623.307000",
          "193623.323000",
          "193623.323000",
          "193623.323000",
          "193623.323000",
          "193623.323000",
          "193623.323000",
          "193623.323000",
          "193703.276000",
          "193703.276000",
          "193703.276000",
          "193703.276000",
          "193703.292000",
          "193703.292000",
          "193703.292000",
          "193703.292000",
          "193703.307000",
          "193703.307000",
          "193703.307000",
          "193703.307000",
          "193703.307000",
          "193703.307000",
          "193703.323000",
          "193703.323000",
          "193703.323000",
          "193703.323000",
          "193703.323000",
          "193703.323000",
          "193734.635000",
          "193734.635000",
          "193734.635000",
          "193734.651000",
          "193734.651000",
          "193734.651000",
          "193734.651000",
          "193734.651000",
          "193734.667000",
          "193734.667000",
          "193734.667000",
          "193734.667000",
          "193734.667000",
          "193734.667000",
          "193734.667000",
          "193734.682000"
        ],
        "InstanceNumber": [
          1,
          2,
          3,
          4,
          5,
          6,
          7,
          8,
          9,
          10,
          11,
          12,
          13,
          14,
          15,
          16,
          17,
          18,
          19,
          20,
          21,
          22,
          23,
          24,
          25,
          26,
          27,
          28,
          29,
          30,
          31,
          32,
          33,
          34,
          35,
          36,
          37,
          38,
          39,
          40,
          41,
          42,
          43,
          44,
          45,
          46,
          47,
          48,
          49,
          50,
          51,
          52,
          53,
          54,
          55,
          56,
          57,
          58,
          59,
          60,
          61,
          62,
          63,
          64,
          65,
          66,
          67,
          68,
          69,
          70,
          71,
          72,
          73,
          74,
          75,
          76,
          77,
          78,
          79,
          80,
          81,
          82,
          83,
          84,
          85,
          86,
          87,
          88,
          89,
          90,
          91,
          92,
          93,
          94,
          95,
          96,
          97,
          98,
          99,
          100,
          101,
          102,
          103,
          104,
          105,
          106,
          107,
          108,
          109,
          110,
          111,
          112,
          113,
          114,
          115,
          116,
          117,
          118,
          119,
          120,
          121,
          122,
          123,
          124,
          125,
          126,
          127,
          128,
          129,
          130,
          131,
          132,
          133,
          134,
          135,
          136,
          137,
          138,
          139,
          140,
          141,
          142,
          143,
          144,
          145,
          146,
          147,
          148,
          149,
          150,
          151,
          152,
          153,
          154,
          155,
          156,
          157,
          158,
          159,
          160,
          161,
          162,
          163,
          164
        ],
        "WindowCenter": [
          1197.0,
          1197.0,
          1196.0,
          1194.0,
          1191.0,
          1191.0,
          1191.0,
          1190.0,
          1189.0,
          1189.0,
          1191.0,
          1192.0,
          1193.0,
          1193.0,
          1193.0,
          1194.0,
          1194.0,
          1195.0,
          1195.0,
          1190.0,
          1188.0,
          1193.0,
          1196.0,
          1195.0,
          1193.0,
          1184.0,
          1182.0,
          1183.0,
          1182.0,
          1184.0,
          1188.0,
          1192.0,
          1194.0,
          1195.0,
          1195.0,
          1195.0,
          1194.0,
          1194.0,
          1193.0,
          1193.0,
          1193.0,
          1195.0,
          1196.0,
          1194.0,
          1193.0,
          1193.0,
          1194.0,
          1195.0,
          1194.0,
          1195.0,
          1196.0,
          1195.0,
          1193.0,
          1193.0,
          1191.0,
          1190.0,
          1191.0,
          1191.0,
          1192.0,
          1191.0,
          1191.0,
          1192.0,
          1191.0,
          1192.0,
          1190.0,
          1189.0,
          1190.0,
          1191.0,
          1190.0,
          1189.0,
          1189.0,
          1193.0,
          1196.0,
          1192.0,
          1190.0,
          1191.0,
          1192.0,
          1192.0,
          1191.0,
          1190.0,
          1191.0,
          1189.0,
          1189.0,
          1188.0,
          1188.0,
          1189.0,
          1190.0,
          1191.0,
          1192.0,
          1192.0,
          1191.0,
          1191.0,
          1191.0,
          1191.0,
          1191.0,
          1190.0,
          1189.0,
          1189.0,
          1188.0,
          1188.0,
          1188.0,
          1188.0,
          1190.0,
          1189.0,
          1190.0,
          1192.0,
          1190.0,
          1189.0,
          1190.0,
          1189.0,
          1189.0,
          1190.0,
          1189.0,
          1188.0,
          1187.0,
          1189.0,
          1190.0,
          1189.0,
          1189.0,
          1189.0,
          1192.0,
          1192.0,
          1190.0,
          1190.0,
          1190.0,
          1191.0,
          1191.0,
          1191.0,
          1192.0,
          1191.0,
          1192.0,
          1192.0,
          1192.0,
          1191.0,
          1191.0,
          1191.0,
          1192.0,
          1192.0,
          1191.0,
          1187.0,
          1191.0,
          1195.0,
          1192.0,
          1189.0,
          1189.0,
          1189.0,
          1188.0,
          1188.0,
          1188.0,
          1187.0,
          1187.0,
          1187.0,
          1188.0,
          1188.0,
          1190.0,
          1190.0,
          1189.0,
          1190.0,
          1192.0,
          1192.0,
          1191.0,
          1192.0,
          1195.0,
          1196.0
        ],
        "WindowWidth": [
          2831.0,
          2833.0,
          2830.0,
          2819.0,
          2813.0,
          2815.0,
          2817.0,
          2813.0,
          2810.0,
          2813.0,
          2816.0,
          2819.0,
          2819.0,
          2817.0,
          2821.0,
          2827.0,
          2827.0,
          2831.0,
          2830.0,
          2813.0,
          2815.0,
          2828.0,
          2830.0,
          2831.0,
          2821.0,
          2798.0,
          2797.0,
          2796.0,
          2796.0,
          2802.0,
          2815.0,
          2821.0,
          2827.0,
          2829.0,
          2830.0,
          2828.0,
          2826.0,
          2827.0,
          2824.0,
          2824.0,
          2827.0,
          2829.0,
          2833.0,
          2828.0,
          2824.0,
          2826.0,
          2826.0,
          2829.0,
          2827.0,
          2830.0,
          2834.0,
          2830.0,
          2826.0,
          2824.0,
          2820.0,
          2819.0,
          2823.0,
          2821.0,
          2821.0,
          2821.0,
          2820.0,
          2824.0,
          2821.0,
          2821.0,
          2818.0,
          2813.0,
          2816.0,
          2821.0,
          2817.0,
          2814.0,
          2815.0,
          2827.0,
          2831.0,
          2822.0,
          2816.0,
          2820.0,
          2820.0,
          2820.0,
          2819.0,
          2818.0,
          2819.0,
