{
  "aor": 0.011676219512195121,
  "aqi": 0.009931318109756098,
  "bids_meta": {
    "AcquisitionMatrixPE": 96,
    "AcquisitionNumber": 1,
    "AcquisitionTime": "18:35:27.247500",
    "BandwidthPerPixelPhaseEncode": 52.083,
    "BaseResolution": 96,
    "BodyPartExamined": "HEAD",
    "ConversionSoftware": "dcm2niix",
    "ConversionSoftwareVersion": "v1.0.20180622 GCC6.3.0",
    "DerivedVendorReportedEchoSpacing": 0.000600004,
    "DeviceSerialNumber": "18926",
    "DwellTime": 2.6e-06,
    "EchoTime": 0.025,
    "EffectiveEchoSpacing": 0.000200001,
    "FlipAngle": 50,
    "ImageOrientationPatientDICOM": [
      0.999992,
      0.00106204,
      0.00396433,
      2.0017e-10,
      0.965938,
      -0.258774
    ],
    "ImageType": [
      "ORIGINAL",
      "PRIMARY",
      "M",
      "ND",
      "ECHO",
      "00",
      "MOSAIC"
    ],
    "InPlanePhaseEncodingDirectionDICOM": "ROW",
    "InstitutionName": "NIMH",
    "InstitutionalDepartmentName": "Department",
    "MRAcquisitionType": "2D",
    "MagneticFieldStrength": 6.98,
    "Manufacturer": "Siemens",
    "ManufacturersModelName": "Investigational_Device_7T",
    "Modality": "MR",
    "ParallelReductionFactorInPlane": 3,
    "PartialFourier": 1,
    "PatientPosition": "HFS",
    "PercentPhaseFOV": 100,
    "PhaseEncodingDirection": "i",
    "PhaseEncodingSteps": 94,
    "PhaseResolution": 1,
    "PixelBandwidth": 2003,
    "ProcedureStepDescription": "MRI_Procedure_Limited",
    "ProtocolName": "NIH_EPI_2.0iso_TR2_Run03",
    "PulseSequenceDetails": "%CustomerSeq%_inati_nih_epi",
    "ReceiveCoilName": "32Ch_Head_7T",
    "ReconMatrixPE": 96,
    "RepetitionTime": 2,
    "SAR": 0.0802965,
    "ScanningSequence": "EP",
    "SequenceName": "epfid2d1_96",
    "SequenceVariant": "SK",
    "SeriesDescription": "NIH_EPI_2.0iso_TR2_Run03",
    "SeriesNumber": 7,
    "ShimSetting": [
      -68,
      215,
      840,
      1199,
      -267,
      642,
      92,
      -480
    ],
    "SliceThickness": 2,
    "SliceTiming": [
      1.0025,
      0,
      1.04,
      0.0375,
      1.0775,
      0.075,
      1.115,
      0.11,
      1.1525,
      0.1475,
      1.19,
      0.185,
      1.2275,
      0.2225,
      1.2625,
      0.26,
      1.3,
      0.2975,
      1.3375,
      0.335,
      1.375,
      0.37,
      1.4125,
      0.4075,
      1.45,
      0.445,
      1.4875,
      0.4825,
      1.525,
      0.52,
      1.56,
      0.5575,
      1.5975,
      0.595,
      1.635,
      0.6325,
      1.6725,
      0.6675,
      1.71,
      0.705,
      1.7475,
      0.7425,
      1.785,
      0.78,
      1.82,
      0.8175,
      1.8575,
      0.855,
      1.895,
      0.8925,
      1.9325,
      0.93,
      1.97,
      0.965
    ],
    "SoftwareVersions": "syngo_MR_B17",
    "SpacingBetweenSlices": 2,
    "StationName": "FMRIFD7T",
    "TaskName": "HalfFovNoTask",
    "TotalReadoutTime": 0.0190001,
    "TxRefAmp": 321,
    "dataset": "ds001555",
    "dcmmeta_affine": [
      [
        -1.9999831914901733,
        4.0034059400895217e-10,
        0.008208253420889378,
        95.76705169677734
      ],
      [
        -0.002124078804627061,
        1.9318759441375732,
        -0.517542839050293,
        -54.059513092041016
      ],
      [
        0.007928663864731789,
        0.5175471901893616,
        1.9318597316741943,
        -55.51789474487305
      ],
      [
        0.0,
        0.0,
        0.0,
        1.0
      ]
    ],
    "dcmmeta_reorient_transform": [
      [
        0.0,
        -1.0,
        0.0,
        95.0
      ],
      [
        1.0,
        0.0,
        0.0,
        0.0
      ],
      [
        0.0,
        0.0,
        1.0,
        0.0
      ],
      [
        0.0,
        0.0,
        0.0,
        1.0
      ]
    ],
    "dcmmeta_shape": [
      96,
      96,
      54,
      164
    ],
    "dcmmeta_slice_dim": 2,
    "dcmmeta_version": 0.6,
    "global": {
      "const": {
        "AcquisitionMatrix": [
          0,
          96,
          96,
          0
        ],
        "Allergies": "No Known Allergies",
        "AngioFlag": "N",
        "BitsAllocated": 16,
        "BitsStored": 12,
        "BodyPartExamined": "HEAD",
        "Columns": 768,
        "EchoNumbers": 1,
        "EchoTime": 25.0,
        "EchoTrainLength": 1,
        "FlipAngle": 50.0,
        "HighBit": 11,
        "ImageOrientationPatient": [
          0.99999157803723,
          0.00106203942406,
          0.00396433183257,
          2.001703e-10,
          0.96593800087893,
          -0.2587736046393
        ],
        "ImagePositionPatient": [
          -767.76139276714,
          -779.29273444391,
          164.88092233343
        ],
        "ImageType": [
          "ORIGINAL",
          "PRIMARY",
          "M",
          "ND",
          "ECHO_00",
          "MOSAIC"
        ],
        "ImagedNucleus": "1H",
        "ImagingFrequency": 297.204855,
        "InPlanePhaseEncodingDirection": "ROW",
        "LargestImagePixelValue": 4095,
        "MRAcquisitionType": "2D",
        "MagneticFieldStrength": 6.98,
        "Manufacturer": "SIEMENS",
        "ManufacturerModelName": "Investigational_Device_7T",
        "Modality": "MR",
        "NumberOfAverages": 1.0,
        "NumberOfPhaseEncodingSteps": 94,
        "PercentPhaseFieldOfView": 100.0,
        "PercentSampling": 100.0,
        "PerformedProcedureStepStartTime": "180307.448000",
        "PhotometricInterpretation": "MONOCHROME2",
        "PixelBandwidth": 2003.0,
        "PixelRepresentation": 0,
        "PixelSpacing": [
          2.0,
          2.0
        ],
        "PositionReferenceIndicator": "",
        "ProcedureCodeSequence": [
          {
            "CodeMeaning": "MRI Procedure Limited",
            "CodeValue": "MI01491",
            "CodingSchemeDesignator": "USA Standard",
            "ContextIdentifier": "4000127006"
          }
        ],
        "ProtocolName": "NIH_EPI_2.0iso_TR2_Run03",
        "ReferencedStudySequence": [
          {
            "ReferencedSOPClassUID": "1.2.840.10008.3.1.2.3.1",
            "ReferencedSOPInstanceUID": "1.2.840.113564.9.1.2787814059.53.2.5000092844"
          }
        ],
        "RepetitionTime": 2000.0,
        "RequestedProcedureCodeSequence": [
          {
            "CodeMeaning": "MRI Procedure Limited",
            "CodeValue": "MI01491",
            "CodingSchemeDesignator": "USA Standard",
            "ContextIdentifier": "4000127006"
          }
        ],
        "RequestingService": "NIHM Molecular Imaging Branch",
        "Rows": 768,
        "SAR": 0.08029645587828,
        "SamplesPerPixel": 1,
        "ScanningSequence": "EP",
        "SequenceName": "epfid2d1_96",
        "SequenceVariant": "SK",
        "SeriesDescription": "NIH_EPI_2.0iso_TR2_Run03",
        "SeriesNumber": 7,
        "SliceLocation": -39.244294500806,
        "SliceThickness": 2.0,
        "SmallestImagePixelValue": 0,
        "SoftwareVersions": "syngo MR B17",
        "SpacingBetweenSlices": 1.9999999794435,
        "TransmitCoilName": "32Ch_Head_7T",
        "VariableFlipAngleFlag": "N",
        "WindowCenterWidthExplanation": "Algo1",
        "dBdt": 0.0
      },
      "slices": {}
    },
    "modality": "bold",
    "run_id": 4,
    "session_id": "10",
    "subject_id": "001",
    "task_id": "HalfFovNoTask",
    "time": {
      "samples": {
        "AcquisitionNumber": [
          1,
          2,
          3,
          4,
          5,
          6,
          7,
          8,
          9,
          10,
          11,
          12,
          13,
          14,
          15,
          16,
          17,
          18,
          19,
          20,
          21,
          22,
          23,
          24,
          25,
          26,
          27,
          28,
          29,
          30,
          31,
          32,
          33,
          34,
          35,
          36,
          37,
          38,
          39,
          40,
          41,
          42,
          43,
          44,
          45,
          46,
          47,
          48,
          49,
          50,
          51,
          52,
          53,
          54,
          55,
          56,
          57,
          58,
          59,
          60,
          61,
          62,
          63,
          64,
          65,
          66,
          67,
          68,
          69,
          70,
          71,
          72,
          73,
          74,
          75,
          76,
          77,
          78,
          79,
          80,
          81,
          82,
          83,
          84,
          85,
          86,
          87,
          88,
          89,
          90,
          91,
          92,
          93,
          94,
          95,
          96,
          97,
          98,
          99,
          100,
          101,
          102,
          103,
          104,
          105,
          106,
          107,
          108,
          109,
          110,
          111,
          112,
          113,
          114,
          115,
          116,
          117,
          118,
          119,
          120,
          121,
          122,
          123,
          124,
          125,
          126,
          127,
          128,
          129,
          130,
          131,
          132,
          133,
          134,
          135,
          136,
          137,
          138,
          139,
          140,
          141,
          142,
          143,
          144,
          145,
          146,
          147,
          148,
          149,
          150,
          151,
          152,
          153,
          154,
          155,
          156,
          157,
          158,
          159,
          160,
          161,
          162,
          163,
          164
        ],
        "AcquisitionTime": [
          "183527.247500",
          "183531.265000",
          "183533.272500",
          "183535.280000",
          "183537.287500",
          "183539.297500",
          "183541.305000",
          "183543.312500",
          "183545.320000",
          "183547.327500",
          "183549.337500",
          "183551.345000",
          "183553.352500",
          "183555.360000",
          "183557.370000",
          "183559.377500",
          "183601.385000",
          "183603.392500",
          "183605.400000",
          "183607.410000",
          "183609.417500",
          "183611.425000",
          "183613.432500",
          "183615.440000",
          "183617.450000",
          "183619.457500",
          "183621.465000",
          "183623.472500",
          "183625.480000",
          "183627.490000",
          "183629.497500",
          "183631.505000",
          "183633.512500",
          "183635.522500",
          "183637.530000",
          "183639.537500",
          "183641.545000",
          "183643.552500",
          "183645.562500",
          "183647.570000",
          "183649.577500",
          "183651.585000",
          "183653.592500",
          "183655.602500",
          "183657.610000",
          "183659.617500",
          "183701.625000",
          "183703.635000",
          "183705.642500",
          "183707.650000",
          "183709.657500",
          "183711.665000",
          "183713.675000",
          "183715.682500",
          "183717.690000",
          "183719.697500",
          "183721.705000",
          "183723.715000",
          "183725.722500",
          "183727.730000",
          "183729.737500",
          "183731.747500",
          "183733.755000",
          "183735.762500",
          "183737.770000",
          "183739.777500",
          "183741.787500",
          "183743.795000",
          "183745.802500",
          "183747.810000",
          "183749.817500",
          "183751.827500",
          "183753.835000",
          "183755.842500",
          "183757.850000",
          "183759.857500",
          "183801.867500",
          "183803.875000",
          "183805.882500",
          "183807.890000",
          "183809.900000",
          "183811.907500",
          "183813.915000",
          "183815.922500",
          "183817.930000",
          "183819.940000",
          "183821.947500",
          "183823.955000",
          "183825.962500",
          "183827.970000",
          "183829.980000",
          "183831.987500",
          "183833.995000",
          "183836.002500",
          "183838.012500",
          "183840.020000",
          "183842.027500",
          "183844.035000",
          "183846.042500",
          "183848.052500",
          "183850.060000",
          "183852.067500",
          "183854.075000",
          "183856.082500",
          "183858.092500",
          "183900.100000",
          "183902.107500",
          "183904.115000",
          "183906.125000",
          "183908.132500",
          "183910.140000",
          "183912.147500",
          "183914.155000",
          "183916.165000",
          "183918.172500",
          "183920.180000",
          "183922.187500",
          "183924.195000",
          "183926.205000",
          "183928.212500",
          "183930.220000",
          "183932.227500",
          "183934.235000",
          "183936.245000",
          "183938.252500",
          "183940.260000",
          "183942.267500",
          "183944.277500",
          "183946.285000",
          "183948.292500",
          "183950.300000",
          "183952.307500",
          "183954.317500",
          "183956.325000",
          "183958.332500",
          "184000.340000",
          "184002.347500",
          "184004.357500",
          "184006.365000",
          "184008.372500",
          "184010.380000",
          "184012.390000",
          "184014.397500",
          "184016.405000",
          "184018.412500",
          "184020.420000",
          "184022.430000",
          "184024.437500",
          "184026.445000",
          "184028.452500",
          "184030.460000",
          "184032.470000",
          "184034.477500",
          "184036.485000",
          "184038.492500",
          "184040.502500",
          "184042.510000",
          "184044.517500",
          "184046.525000",
          "184048.532500",
          "184050.542500",
          "184052.550000",
          "184054.557500",
          "184056.565000"
        ],
        "ContentTime": [
          "183616.635000",
          "183616.635000",
          "183616.635000",
          "183616.635000",
          "183616.651000",
          "183616.651000",
          "183616.651000",
          "183616.651000",
          "183616.651000",
          "183616.651000",
          "183616.651000",
          "183616.667000",
          "183616.667000",
          "183616.667000",
          "183616.667000",
          "183616.667000",
          "183616.667000",
          "183616.682000",
          "183616.682000",
          "183616.682000",
          "183616.682000",
          "183616.682000",
          "183616.682000",
          "183636.620000",
          "183636.620000",
          "183636.620000",
          "183636.635000",
          "183636.635000",
          "183636.635000",
          "183636.635000",
          "183636.651000",
          "183636.651000",
          "183636.651000",
          "183716.620000",
          "183716.620000",
          "183716.620000",
          "183716.620000",
          "183716.635000",
          "183716.635000",
          "183716.635000",
          "183716.651000",
          "183716.651000",
          "183716.651000",
          "183716.651000",
          "183716.667000",
          "183716.667000",
          "183716.667000",
          "183716.667000",
          "183716.667000",
          "183716.667000",
          "183716.682000",
          "183716.682000",
          "183716.682000",
          "183756.620000",
          "183756.620000",
          "183756.620000",
          "183756.620000",
          "183756.635000",
          "183756.635000",
          "183756.635000",
          "183756.635000",
          "183756.635000",
          "183756.635000",
          "183756.635000",
          "183756.651000",
          "183756.651000",
          "183756.651000",
          "183756.651000",
          "183756.651000",
          "183756.651000",
          "183756.667000",
          "183756.667000",
          "183756.667000",
          "183836.620000",
          "183836.620000",
          "183836.620000",
          "183836.620000",
          "183836.635000",
          "183836.635000",
          "183836.635000",
          "183836.635000",
          "183836.635000",
          "183836.635000",
          "183836.651000",
          "183836.651000",
          "183836.651000",
          "183836.651000",
          "183836.667000",
          "183836.667000",
          "183836.667000",
          "183836.667000",
          "183836.667000",
          "183836.667000",
          "183916.620000",
          "183916.620000",
          "183916.620000",
          "183916.620000",
          "183916.635000",
          "183916.635000",
          "183916.635000",
          "183916.651000",
          "183916.651000",
          "183916.651000",
          "183916.651000",
          "183916.651000",
          "183916.651000",
          "183916.651000",
          "183916.667000",
          "183916.667000",
          "183916.667000",
          "183916.667000",
          "183916.667000",
          "183916.667000",
          "183956.620000",
          "183956.620000",
          "183956.620000",
          "183956.620000",
          "183956.635000",
          "183956.635000",
          "183956.635000",
          "183956.635000",
          "183956.635000",
          "183956.635000",
          "183956.635000",
          "183956.651000",
          "183956.651000",
          "183956.651000",
          "183956.667000",
          "183956.667000",
          "183956.667000",
          "183956.667000",
          "183956.667000",
          "183956.667000",
          "184036.620000",
          "184036.620000",
          "184036.620000",
          "184036.620000",
          "184036.635000",
          "184036.635000",
          "184036.635000",
          "184036.651000",
          "184036.651000",
          "184036.651000",
          "184036.651000",
          "184036.651000",
          "184036.651000",
          "184036.651000",
          "184036.667000",
          "184036.667000",
          "184036.667000",
          "184036.667000",
          "184036.667000",
          "184036.667000",
          "184057.604000",
          "184057.604000",
          "184057.604000",
          "184057.620000",
          "184057.620000",
          "184057.620000",
          "184057.620000",
          "184057.620000",
          "184057.620000",
          "184057.620000",
          "184057.635000"
        ],
        "InstanceCreationTime": [
          "183616.635000",
          "183616.635000",
          "183616.635000",
          "183616.635000",
          "183616.651000",
          "183616.651000",
          "183616.651000",
          "183616.651000",
          "183616.651000",
          "183616.651000",
          "183616.651000",
          "183616.667000",
          "183616.667000",
          "183616.667000",
          "183616.667000",
          "183616.667000",
          "183616.667000",
          "183616.682000",
          "183616.682000",
          "183616.682000",
          "183616.682000",
          "183616.682000",
          "183616.682000",
          "183636.620000",
          "183636.620000",
          "183636.620000",
          "183636.635000",
          "183636.635000",
          "183636.635000",
          "183636.635000",
          "183636.651000",
          "183636.651000",
          "183636.651000",
          "183716.620000",
          "183716.620000",
          "183716.620000",
          "183716.620000",
          "183716.635000",
          "183716.635000",
          "183716.635000",
          "183716.651000",
          "183716.651000",
          "183716.651000",
          "183716.651000",
          "183716.667000",
          "183716.667000",
          "183716.667000",
          "183716.667000",
          "183716.667000",
          "183716.667000",
          "183716.682000",
          "183716.682000",
          "183716.682000",
          "183756.620000",
          "183756.620000",
          "183756.620000",
          "183756.620000",
          "183756.635000",
          "183756.635000",
          "183756.635000",
          "183756.635000",
          "183756.635000",
          "183756.635000",
          "183756.635000",
          "183756.651000",
          "183756.651000",
          "183756.651000",
          "183756.651000",
          "183756.651000",
          "183756.651000",
          "183756.667000",
          "183756.667000",
          "183756.667000",
          "183836.620000",
          "183836.620000",
          "183836.620000",
          "183836.620000",
          "183836.635000",
          "183836.635000",
          "183836.635000",
          "183836.635000",
          "183836.635000",
          "183836.635000",
          "183836.651000",
          "183836.651000",
          "183836.651000",
          "183836.651000",
          "183836.667000",
          "183836.667000",
          "183836.667000",
          "183836.667000",
          "183836.667000",
          "183836.667000",
          "183916.620000",
          "183916.620000",
          "183916.620000",
          "183916.620000",
          "183916.635000",
          "183916.635000",
          "183916.635000",
          "183916.651000",
          "183916.651000",
          "183916.651000",
          "183916.651000",
          "183916.651000",
          "183916.651000",
          "183916.651000",
          "183916.667000",
          "183916.667000",
          "183916.667000",
          "183916.667000",
          "183916.667000",
          "183916.667000",
          "183956.620000",
          "183956.620000",
          "183956.620000",
          "183956.620000",
          "183956.635000",
          "183956.635000",
          "183956.635000",
          "183956.635000",
          "183956.635000",
          "183956.635000",
          "183956.635000",
          "183956.651000",
          "183956.651000",
          "183956.651000",
          "183956.667000",
          "183956.667000",
          "183956.667000",
          "183956.667000",
          "183956.667000",
          "183956.667000",
          "184036.620000",
          "184036.620000",
          "184036.620000",
          "184036.620000",
          "184036.635000",
          "184036.635000",
          "184036.635000",
          "184036.651000",
          "184036.651000",
          "184036.651000",
          "184036.651000",
          "184036.651000",
          "184036.651000",
          "184036.651000",
          "184036.667000",
          "184036.667000",
          "184036.667000",
          "184036.667000",
          "184036.667000",
          "184036.667000",
          "184057.604000",
          "184057.604000",
          "184057.604000",
          "184057.620000",
          "184057.620000",
          "184057.620000",
          "184057.620000",
          "184057.620000",
          "184057.620000",
          "184057.620000",
          "184057.635000"
        ],
        "InstanceNumber": [
          1,
          2,
          3,
          4,
          5,
          6,
          7,
          8,
          9,
          10,
          11,
          12,
          13,
          14,
          15,
          16,
          17,
          18,
          19,
          20,
          21,
          22,
          23,
          24,
          25,
          26,
          27,
          28,
          29,
          30,
          31,
          32,
          33,
          34,
          35,
          36,
          37,
          38,
          39,
          40,
          41,
          42,
          43,
          44,
          45,
          46,
          47,
          48,
          49,
          50,
          51,
          52,
          53,
          54,
          55,
          56,
          57,
          58,
          59,
          60,
          61,
          62,
          63,
          64,
          65,
          66,
          67,
          68,
          69,
          70,
          71,
          72,
          73,
          74,
          75,
          76,
          77,
          78,
          79,
          80,
          81,
          82,
          83,
          84,
          85,
          86,
          87,
          88,
          89,
          90,
          91,
          92,
          93,
          94,
          95,
          96,
          97,
          98,
          99,
          100,
          101,
          102,
          103,
          104,
          105,
          106,
          107,
          108,
          109,
          110,
          111,
          112,
          113,
          114,
          115,
          116,
          117,
          118,
          119,
          120,
          121,
          122,
          123,
          124,
          125,
          126,
          127,
          128,
          129,
          130,
          131,
          132,
          133,
          134,
          135,
          136,
          137,
          138,
          139,
          140,
          141,
          142,
          143,
          144,
          145,
          146,
          147,
          148,
          149,
          150,
          151,
          152,
          153,
          154,
          155,
          156,
          157,
          158,
          159,
          160,
          161,
          162,
          163,
          164
        ],
        "WindowCenter": [
          1184.0,
          1181.0,
          1182.0,
          1181.0,
          1180.0,
          1181.0,
          1180.0,
          1179.0,
          1179.0,
          1179.0,
          1182.0,
          1183.0,
          1181.0,
          1180.0,
          1182.0,
          1182.0,
          1182.0,
          1181.0,
          1182.0,
          1181.0,
          1180.0,
          1182.0,
          1181.0,
          1181.0,
          1182.0,
          1182.0,
          1183.0,
          1183.0,
          1181.0,
          1186.0,
          1188.0,
          1187.0,
          1183.0,
          1183.0,
          1178.0,
          1172.0,
          1173.0,
          1174.0,
          1175.0,
          1178.0,
          1177.0,
          1175.0,
          1177.0,
          1178.0,
          1179.0,
          1179.0,
          1179.0,
          1182.0,
          1183.0,
          1181.0,
          1178.0,
          1179.0,
          1180.0,
          1182.0,
          1180.0,
          1182.0,
          1182.0,
          1183.0,
          1179.0,
          1178.0,
          1180.0,
          1181.0,
          1182.0,
          1181.0,
          1181.0,
          1182.0,
          1182.0,
          1184.0,
          1185.0,
          1184.0,
          1185.0,
          1185.0,
          1185.0,
          1185.0,
          1184.0,
          1185.0,
          1185.0,
          1186.0,
          1187.0,
          1186.0,
          1186.0,
          1183.0,
          1183.0,
          1184.0,
          1184.0,
          1184.0,
          1182.0,
          1182.0,
          1182.0,
          1182.0,
          1183.0,
          1183.0,
          1184.0,
          1183.0,
          1182.0,
          1183.0,
          1183.0,
          1183.0,
          1183.0,
          1183.0,
          1182.0,
          1182.0,
          1184.0,
          1183.0,
          1184.0,
          1184.0,
          1184.0,
          1185.0,
          1184.0,
          1185.0,
          1185.0,
          1182.0,
          1182.0,
          1184.0,
          1186.0,
          1182.0,
          1181.0,
          1184.0,
          1185.0,
          1184.0,
          1184.0,
          1182.0,
          1182.0,
          1182.0,
          1182.0,
          1181.0,
          1181.0,
          1182.0,
          1183.0,
          1183.0,
          1182.0,
          1181.0,
          1181.0,
          1182.0,
          1182.0,
          1183.0,
          1182.0,
          1184.0,
          1185.0,
          1184.0,
          1184.0,
          1185.0,
          1184.0,
          1184.0,
          1185.0,
          1185.0,
          1183.0,
          1183.0,
          1182.0,
          1181.0,
          1180.0,
          1178.0,
          1178.0,
          1180.0,
          1181.0,
          1182.0,
          1181.0,
          1181.0,
          1183.0,
          1182.0,
          1182.0,
          1182.0,
          1184.0,
          1186.0
        ],
        "WindowWidth": [
          2811.0,
          2808.0,
          2813.0,
          2808.0,
          2804.0,
          2805.0,
          2803.0,
          2802.0,
          2802.0,
          2803.0,
          2808.0,
          2809.0,
          2806.0,
          2805.0,
          2808.0,
          2809.0,
          2807.0,
          2808.0,
          2809.0,
          2808.0,
          2806.0,
          2808.0,
          2807.0,
          2807.0,
          2811.0,
          2811.0,
          2811.0,
          2814.0,
          2807.0,
          2823.0,
          2826.0,
          2825.0,
          2815.0,
          2814.0,
          2798.0,
          2785.0,
          2788.0,
          2790.0,
          2791.0,
          2801.0,
          2794.0,
          2788.0,
          2795.0,
          2798.0,
          2801.0,
          2801.0,
          2798.0,
          2811.0,
          2811.0,
          2803.0,
          2798.0,
          2801.0,
          2806.0,
          2808.0,
          2802.0,
          2809.0,
          2812.0,
          2813.0,
          2798.0,
          2799.0,
          2807.0,
          2807.0,
          2805.0,
          2804.0,
          2807.0,
          2811.0,
          2808.0,
          2814.0,
          2815.0,
          2814.0,
          2816.0,
          2817.0,
          2817.0,
          2818.0,
          2815.0,
          2816.0,
          2817.0,
          2820.0,
          2824.0,
          2820.0,
          2815.0,
          2811.0,
