{
  "aor": 0.0026653658536585365,
  "aqi": 0.005126092621951219,
  "bids_meta": {
    "AcquisitionMatrixPE": 96,
    "AcquisitionNumber": 1,
    "AcquisitionTime": "19:14:50.455000",
    "BandwidthPerPixelPhaseEncode": 52.083,
    "BaseResolution": 96,
    "BodyPartExamined": "HEAD",
    "ConversionSoftware": "dcm2niix",
    "ConversionSoftwareVersion": "v1.0.20180622 GCC6.3.0",
    "DerivedVendorReportedEchoSpacing": 0.000600004,
    "DeviceSerialNumber": "18926",
    "DwellTime": 2.6e-06,
    "EchoTime": 0.025,
    "EffectiveEchoSpacing": 0.000200001,
    "FlipAngle": 50,
    "ImageOrientationPatientDICOM": [
      0.999992,
      0.00107587,
      0.0039606,
      2.16778e-10,
      0.965029,
      -0.262144
    ],
    "ImageType": [
      "ORIGINAL",
      "PRIMARY",
      "M",
      "ND",
      "ECHO",
      "00",
      "MOSAIC"
    ],
    "InPlanePhaseEncodingDirectionDICOM": "ROW",
    "InstitutionName": "NIMH",
    "InstitutionalDepartmentName": "Department",
    "MRAcquisitionType": "2D",
    "MagneticFieldStrength": 6.98,
    "Manufacturer": "Siemens",
    "ManufacturersModelName": "Investigational_Device_7T",
    "Modality": "MR",
    "ParallelReductionFactorInPlane": 3,
    "PartialFourier": 1,
    "PatientPosition": "HFS",
    "PercentPhaseFOV": 100,
    "PhaseEncodingDirection": "i",
    "PhaseEncodingSteps": 94,
    "PhaseResolution": 1,
    "PixelBandwidth": 2003,
    "ProcedureStepDescription": "UserProtocols_gonzalez",
    "ProtocolName": "NIH_EPI_2.0iso_TR2_Run07",
    "PulseSequenceDetails": "%CustomerSeq%_inati_nih_epi",
    "ReceiveCoilName": "32Ch_Head_7T",
    "ReconMatrixPE": 96,
    "RepetitionTime": 2,
    "SAR": 0.0759966,
    "ScanningSequence": "EP",
    "SequenceName": "epfid2d1_96",
    "SequenceVariant": "SK",
    "SeriesDescription": "NIH_EPI_2.0iso_TR2_Run07",
    "SeriesNumber": 11,
    "ShimSetting": [
      -84,
      226,
      870,
      988,
      -135,
      780,
      -134,
      -388
    ],
    "SliceThickness": 2,
    "SliceTiming": [
      1.005,
      0,
      1.0425,
      0.0375,
      1.08,
      0.075,
      1.115,
      0.1125,
      1.1525,
      0.15,
      1.19,
      0.1875,
      1.2275,
      0.225,
      1.265,
      0.26,
      1.3025,
      0.2975,
      1.34,
      0.335,
      1.3775,
      0.3725,
      1.4125,
      0.41,
      1.45,
      0.4475,
      1.4875,
      0.485,
      1.525,
      0.52,
      1.5625,
      0.5575,
      1.6,
      0.595,
      1.6375,
      0.6325,
      1.675,
      0.67,
      1.71,
      0.7075,
      1.7475,
      0.745,
      1.785,
      0.7825,
      1.8225,
      0.8175,
      1.86,
      0.855,
      1.8975,
      0.8925,
      1.935,
      0.93,
      1.97,
      0.9675
    ],
    "SoftwareVersions": "syngo_MR_B17",
    "SpacingBetweenSlices": 2,
    "StationName": "FMRIFD7T",
    "TaskName": "HalfFovNoTask",
    "TotalReadoutTime": 0.0190001,
    "TxRefAmp": 312,
    "dataset": "ds001555",
    "dcmmeta_affine": [
      [
        -1.9999831914901733,
        4.3355619094853637e-10,
        0.008208254352211952,
        95.76705169677734
      ],
      [
        -0.002151742111891508,
        1.9300576448440552,
        -0.5242831110954285,
        -47.04811477661133
      ],
      [
        0.00792120210826397,
        0.5242875218391418,
        1.9300414323806763,
        -53.087623596191406
      ],
      [
        0.0,
        0.0,
        0.0,
        1.0
      ]
    ],
    "dcmmeta_reorient_transform": [
      [
        0.0,
        -1.0,
        0.0,
        95.0
      ],
      [
        1.0,
        0.0,
        0.0,
        0.0
      ],
      [
        0.0,
        0.0,
        1.0,
        0.0
      ],
      [
        0.0,
        0.0,
        0.0,
        1.0
      ]
    ],
    "dcmmeta_shape": [
      96,
      96,
      54,
      164
    ],
    "dcmmeta_slice_dim": 2,
    "dcmmeta_version": 0.6,
    "global": {
      "const": {
        "AcquisitionMatrix": [
          0,
          96,
          96,
          0
        ],
        "AngioFlag": "N",
        "BitsAllocated": 16,
        "BitsStored": 12,
        "BodyPartExamined": "HEAD",
        "Columns": 768,
        "EchoNumbers": 1,
        "EchoTime": 25.0,
        "EchoTrainLength": 1,
        "FlipAngle": 50.0,
        "HighBit": 11,
        "ImageOrientationPatient": [
          0.99999157803541,
          0.00107587108734,
          0.00396060092,
          2.167781e-10,
          0.96502883202267,
          -0.2621437646883
        ],
        "ImagePositionPatient": [
          -767.7613927785,
          -785.52972561764,
          170.21877850821
        ],
        "ImageType": [
          "ORIGINAL",
          "PRIMARY",
          "M",
          "ND",
          "ECHO_00",
          "MOSAIC"
        ],
        "ImagedNucleus": "1H",
        "ImagingFrequency": 297.204951,
        "InPlanePhaseEncodingDirection": "ROW",
        "LargestImagePixelValue": 4095,
        "MRAcquisitionType": "2D",
        "MagneticFieldStrength": 6.98,
        "Manufacturer": "SIEMENS",
        "ManufacturerModelName": "Investigational_Device_7T",
        "Modality": "MR",
        "NumberOfAverages": 1.0,
        "NumberOfPhaseEncodingSteps": 94,
        "PercentPhaseFieldOfView": 100.0,
        "PercentSampling": 100.0,
        "PerformedProcedureStepStartTime": "180945.046000",
        "PhotometricInterpretation": "MONOCHROME2",
        "PixelBandwidth": 2003.0,
        "PixelRepresentation": 0,
        "PixelSpacing": [
          2.0,
          2.0
        ],
        "PositionReferenceIndicator": "",
        "ProtocolName": "NIH_EPI_2.0iso_TR2_Run07",
        "RepetitionTime": 2000.0,
        "Rows": 768,
        "SAR": 0.07599660351215,
        "SamplesPerPixel": 1,
        "ScanningSequence": "EP",
        "SequenceName": "epfid2d1_96",
        "SequenceVariant": "SK",
        "SeriesDescription": "NIH_EPI_2.0iso_TR2_Run07",
        "SeriesNumber": 11,
        "SliceLocation": -38.50434946979,
        "SliceThickness": 2.0,
        "SmallestImagePixelValue": 0,
        "SoftwareVersions": "syngo MR B17",
        "SpacingBetweenSlices": 1.9999999913969,
        "TransmitCoilName": "32Ch_Head_7T",
        "VariableFlipAngleFlag": "N",
        "WindowCenterWidthExplanation": "Algo1",
        "dBdt": 0.0
      },
      "slices": {}
    },
    "modality": "bold",
    "run_id": 8,
    "session_id": "08",
    "subject_id": "001",
    "task_id": "HalfFovNoTask",
    "time": {
      "samples": {
        "AcquisitionNumber": [
          1,
          2,
          3,
          4,
          5,
          6,
          7,
          8,
          9,
          10,
          11,
          12,
          13,
          14,
          15,
          16,
          17,
          18,
          19,
          20,
          21,
          22,
          23,
          24,
          25,
          26,
          27,
          28,
          29,
          30,
          31,
          32,
          33,
          34,
          35,
          36,
          37,
          38,
          39,
          40,
          41,
          42,
          43,
          44,
          45,
          46,
          47,
          48,
          49,
          50,
          51,
          52,
          53,
          54,
          55,
          56,
          57,
          58,
          59,
          60,
          61,
          62,
          63,
          64,
          65,
          66,
          67,
          68,
          69,
          70,
          71,
          72,
          73,
          74,
          75,
          76,
          77,
          78,
          79,
          80,
          81,
          82,
          83,
          84,
          85,
          86,
          87,
          88,
          89,
          90,
          91,
          92,
          93,
          94,
          95,
          96,
          97,
          98,
          99,
          100,
          101,
          102,
          103,
          104,
          105,
          106,
          107,
          108,
          109,
          110,
          111,
          112,
          113,
          114,
          115,
          116,
          117,
          118,
          119,
          120,
          121,
          122,
          123,
          124,
          125,
          126,
          127,
          128,
          129,
          130,
          131,
          132,
          133,
          134,
          135,
          136,
          137,
          138,
          139,
          140,
          141,
          142,
          143,
          144,
          145,
          146,
          147,
          148,
          149,
          150,
          151,
          152,
          153,
          154,
          155,
          156,
          157,
          158,
          159,
          160,
          161,
          162,
          163,
          164
        ],
        "AcquisitionTime": [
          "191450.455000",
          "191454.470000",
          "191456.477500",
          "191458.487500",
          "191500.495000",
          "191502.502500",
          "191504.510000",
          "191506.520000",
          "191508.527500",
          "191510.535000",
          "191512.542500",
          "191514.550000",
          "191516.560000",
          "191518.567500",
          "191520.575000",
          "191522.582500",
          "191524.590000",
          "191526.600000",
          "191528.607500",
          "191530.615000",
          "191532.622500",
          "191534.630000",
          "191536.640000",
          "191538.647500",
          "191540.655000",
          "191542.662500",
          "191544.672500",
          "191546.680000",
          "191548.687500",
          "191550.695000",
          "191552.702500",
          "191554.712500",
          "191556.720000",
          "191558.727500",
          "191600.735000",
          "191602.742500",
          "191604.752500",
          "191606.760000",
          "191608.767500",
          "191610.775000",
          "191612.785000",
          "191614.792500",
          "191616.800000",
          "191618.807500",
          "191620.815000",
          "191622.825000",
          "191624.832500",
          "191626.840000",
          "191628.847500",
          "191630.855000",
          "191632.865000",
          "191634.872500",
          "191636.880000",
          "191638.887500",
          "191640.897500",
          "191642.905000",
          "191644.912500",
          "191646.920000",
          "191648.927500",
          "191650.937500",
          "191652.945000",
          "191654.952500",
          "191656.960000",
          "191658.967500",
          "191700.977500",
          "191702.985000",
          "191704.992500",
          "191707.000000",
          "191709.010000",
          "191711.017500",
          "191713.025000",
          "191715.032500",
          "191717.040000",
          "191719.050000",
          "191721.057500",
          "191723.065000",
          "191725.072500",
          "191727.080000",
          "191729.090000",
          "191731.097500",
          "191733.105000",
          "191735.112500",
          "191737.120000",
          "191739.130000",
          "191741.137500",
          "191743.145000",
          "191745.152500",
          "191747.162500",
          "191749.170000",
          "191751.177500",
          "191753.185000",
          "191755.192500",
          "191757.202500",
          "191759.210000",
          "191801.217500",
          "191803.225000",
          "191805.232500",
          "191807.242500",
          "191809.250000",
          "191811.257500",
          "191813.265000",
          "191815.275000",
          "191817.282500",
          "191819.290000",
          "191821.297500",
          "191823.305000",
          "191825.315000",
          "191827.322500",
          "191829.330000",
          "191831.337500",
          "191833.345000",
          "191835.355000",
          "191837.362500",
          "191839.370000",
          "191841.377500",
          "191843.387500",
          "191845.395000",
          "191847.402500",
          "191849.410000",
          "191851.417500",
          "191853.427500",
          "191855.435000",
          "191857.442500",
          "191859.450000",
          "191901.457500",
          "191903.467500",
          "191905.475000",
          "191907.482500",
          "191909.490000",
          "191911.497500",
          "191913.507500",
          "191915.515000",
          "191917.522500",
          "191919.530000",
          "191921.540000",
          "191923.547500",
          "191925.555000",
          "191927.562500",
          "191929.570000",
          "191931.580000",
          "191933.587500",
          "191935.595000",
          "191937.602500",
          "191939.610000",
          "191941.620000",
          "191943.627500",
          "191945.635000",
          "191947.642500",
          "191949.652500",
          "191951.660000",
          "191953.667500",
          "191955.675000",
          "191957.682500",
          "191959.692500",
          "192001.700000",
          "192003.707500",
          "192005.715000",
          "192007.722500",
          "192009.732500",
          "192011.740000",
          "192013.747500",
          "192015.755000",
          "192017.765000",
          "192019.772500"
        ],
        "ContentTime": [
          "191537.312000",
          "191537.312000",
          "191537.312000",
          "191537.328000",
          "191537.328000",
          "191537.328000",
          "191537.328000",
          "191537.343000",
          "191537.343000",
          "191537.343000",
          "191537.343000",
          "191537.343000",
          "191537.343000",
          "191537.359000",
          "191537.359000",
          "191537.359000",
          "191537.359000",
          "191537.359000",
          "191537.375000",
          "191537.375000",
          "191537.375000",
          "191537.375000",
          "191617.296000",
          "191617.296000",
          "191617.312000",
          "191617.312000",
          "191617.312000",
          "191617.312000",
          "191617.312000",
          "191617.312000",
          "191617.328000",
          "191617.328000",
          "191617.328000",
          "191617.328000",
          "191617.328000",
          "191617.328000",
          "191617.328000",
          "191617.343000",
          "191617.343000",
          "191617.343000",
          "191617.343000",
          "191617.343000",
          "191657.296000",
          "191657.296000",
          "191657.312000",
          "191657.312000",
          "191657.312000",
          "191657.312000",
          "191657.328000",
          "191657.328000",
          "191657.328000",
          "191657.328000",
          "191657.328000",
          "191657.328000",
          "191657.328000",
          "191657.343000",
          "191657.343000",
          "191657.343000",
          "191657.343000",
          "191657.343000",
          "191657.343000",
          "191657.359000",
          "191737.296000",
          "191737.296000",
          "191737.312000",
          "191737.312000",
          "191737.312000",
          "191737.312000",
          "191737.312000",
          "191737.312000",
          "191737.328000",
          "191737.328000",
          "191737.328000",
          "191737.328000",
          "191737.343000",
          "191737.343000",
          "191737.343000",
          "191737.343000",
          "191737.343000",
          "191737.359000",
          "191737.359000",
          "191737.359000",
          "191817.296000",
          "191817.296000",
          "191817.312000",
          "191817.312000",
          "191817.312000",
          "191817.312000",
          "191817.328000",
          "191817.328000",
          "191817.328000",
          "191817.328000",
          "191817.328000",
          "191817.328000",
          "191817.343000",
          "191817.343000",
          "191817.343000",
          "191817.343000",
          "191817.343000",
          "191817.343000",
          "191817.343000",
          "191817.359000",
          "191857.296000",
          "191857.296000",
          "191857.312000",
          "191857.312000",
          "191857.312000",
          "191857.312000",
          "191857.312000",
          "191857.312000",
          "191857.328000",
          "191857.328000",
          "191857.328000",
          "191857.328000",
          "191857.328000",
          "191857.328000",
          "191857.328000",
          "191857.343000",
          "191857.343000",
          "191857.343000",
          "191857.343000",
          "191857.343000",
          "191937.296000",
          "191937.296000",
          "191937.312000",
          "191937.312000",
          "191937.312000",
          "191937.312000",
          "191937.312000",
          "191937.328000",
          "191937.328000",
          "191937.328000",
          "191937.328000",
          "191937.328000",
          "191937.328000",
          "191937.343000",
          "191937.343000",
          "191937.343000",
          "191937.343000",
          "191937.343000",
          "191937.343000",
          "191937.343000",
          "192017.296000",
          "192017.312000",
          "192017.312000",
          "192017.312000",
          "192017.312000",
          "192017.312000",
          "192017.312000",
          "192017.312000",
          "192017.328000",
          "192017.328000",
          "192017.328000",
          "192017.328000",
          "192017.328000",
          "192017.328000",
          "192017.343000",
          "192017.343000",
          "192017.343000",
          "192017.343000",
          "192017.343000",
          "192017.343000",
          "192020.109000",
          "192020.109000"
        ],
        "InstanceCreationTime": [
          "191537.312000",
          "191537.312000",
          "191537.312000",
          "191537.328000",
          "191537.328000",
          "191537.328000",
          "191537.328000",
          "191537.343000",
          "191537.343000",
          "191537.343000",
          "191537.343000",
          "191537.343000",
          "191537.343000",
          "191537.359000",
          "191537.359000",
          "191537.359000",
          "191537.359000",
          "191537.359000",
          "191537.375000",
          "191537.375000",
          "191537.375000",
          "191537.375000",
          "191617.296000",
          "191617.296000",
          "191617.312000",
          "191617.312000",
          "191617.312000",
          "191617.312000",
          "191617.312000",
          "191617.312000",
          "191617.328000",
          "191617.328000",
          "191617.328000",
          "191617.328000",
          "191617.328000",
          "191617.328000",
          "191617.328000",
          "191617.343000",
          "191617.343000",
          "191617.343000",
          "191617.343000",
          "191617.343000",
          "191657.296000",
          "191657.296000",
          "191657.312000",
          "191657.312000",
          "191657.312000",
          "191657.312000",
          "191657.328000",
          "191657.328000",
          "191657.328000",
          "191657.328000",
          "191657.328000",
          "191657.328000",
          "191657.328000",
          "191657.343000",
          "191657.343000",
          "191657.343000",
          "191657.343000",
          "191657.343000",
          "191657.343000",
          "191657.359000",
          "191737.296000",
          "191737.296000",
          "191737.312000",
          "191737.312000",
          "191737.312000",
          "191737.312000",
          "191737.312000",
          "191737.312000",
          "191737.328000",
          "191737.328000",
          "191737.328000",
          "191737.328000",
          "191737.343000",
          "191737.343000",
          "191737.343000",
          "191737.343000",
          "191737.343000",
          "191737.359000",
          "191737.359000",
          "191737.359000",
          "191817.296000",
          "191817.296000",
          "191817.312000",
          "191817.312000",
          "191817.312000",
          "191817.312000",
          "191817.328000",
          "191817.328000",
          "191817.328000",
          "191817.328000",
          "191817.328000",
          "191817.328000",
          "191817.343000",
          "191817.343000",
          "191817.343000",
          "191817.343000",
          "191817.343000",
          "191817.343000",
          "191817.343000",
          "191817.359000",
          "191857.296000",
          "191857.296000",
          "191857.312000",
          "191857.312000",
          "191857.312000",
          "191857.312000",
          "191857.312000",
          "191857.312000",
          "191857.328000",
          "191857.328000",
          "191857.328000",
          "191857.328000",
          "191857.328000",
          "191857.328000",
          "191857.328000",
          "191857.343000",
          "191857.343000",
          "191857.343000",
          "191857.343000",
          "191857.343000",
          "191937.296000",
          "191937.296000",
          "191937.312000",
          "191937.312000",
          "191937.312000",
          "191937.312000",
          "191937.312000",
          "191937.328000",
          "191937.328000",
          "191937.328000",
          "191937.328000",
          "191937.328000",
          "191937.328000",
          "191937.343000",
          "191937.343000",
          "191937.343000",
          "191937.343000",
          "191937.343000",
          "191937.343000",
          "191937.343000",
          "192017.296000",
          "192017.312000",
          "192017.312000",
          "192017.312000",
          "192017.312000",
          "192017.312000",
          "192017.312000",
          "192017.312000",
          "192017.328000",
          "192017.328000",
          "192017.328000",
          "192017.328000",
          "192017.328000",
          "192017.328000",
          "192017.343000",
          "192017.343000",
          "192017.343000",
          "192017.343000",
          "192017.343000",
          "192017.343000",
          "192020.109000",
          "192020.109000"
        ],
        "InstanceNumber": [
          1,
          2,
          3,
          4,
          5,
          6,
          7,
          8,
          9,
          10,
          11,
          12,
          13,
          14,
          15,
          16,
          17,
          18,
          19,
          20,
          21,
          22,
          23,
          24,
          25,
          26,
          27,
          28,
          29,
          30,
          31,
          32,
          33,
          34,
          35,
          36,
          37,
          38,
          39,
          40,
          41,
          42,
          43,
          44,
          45,
          46,
          47,
          48,
          49,
          50,
          51,
          52,
          53,
          54,
          55,
          56,
          57,
          58,
          59,
          60,
          61,
          62,
          63,
          64,
          65,
          66,
          67,
          68,
          69,
          70,
          71,
          72,
          73,
          74,
          75,
          76,
          77,
          78,
          79,
          80,
          81,
          82,
          83,
          84,
          85,
          86,
          87,
          88,
          89,
          90,
          91,
          92,
          93,
          94,
          95,
          96,
          97,
          98,
          99,
          100,
          101,
          102,
          103,
          104,
          105,
          106,
          107,
          108,
          109,
          110,
          111,
          112,
          113,
          114,
          115,
          116,
          117,
          118,
          119,
          120,
          121,
          122,
          123,
          124,
          125,
          126,
          127,
          128,
          129,
          130,
          131,
          132,
          133,
          134,
          135,
          136,
          137,
          138,
          139,
          140,
          141,
          142,
          143,
          144,
          145,
          146,
          147,
          148,
          149,
          150,
          151,
          152,
          153,
          154,
          155,
          156,
          157,
          158,
          159,
          160,
          161,
          162,
          163,
          164
        ],
        "WindowCenter": [
          1223.0,
          1222.0,
          1222.0,
          1220.0,
          1216.0,
          1216.0,
          1215.0,
          1216.0,
          1217.0,
          1217.0,
          1217.0,
          1218.0,
          1220.0,
          1220.0,
          1219.0,
          1219.0,
          1220.0,
          1222.0,
          1221.0,
          1220.0,
          1221.0,
          1222.0,
          1221.0,
          1220.0,
          1219.0,
          1218.0,
          1219.0,
          1218.0,
          1217.0,
          1219.0,
          1220.0,
          1219.0,
          1217.0,
          1217.0,
          1219.0,
          1218.0,
          1218.0,
          1216.0,
          1219.0,
          1220.0,
          1219.0,
          1217.0,
          1216.0,
          1218.0,
          1222.0,
          1223.0,
          1222.0,
          1220.0,
          1219.0,
          1220.0,
          1220.0,
          1220.0,
          1219.0,
          1220.0,
          1221.0,
          1221.0,
          1222.0,
          1223.0,
          1222.0,
          1221.0,
          1220.0,
          1221.0,
          1222.0,
          1222.0,
          1223.0,
          1224.0,
          1223.0,
          1222.0,
          1223.0,
          1225.0,
          1224.0,
          1223.0,
          1222.0,
          1224.0,
          1225.0,
          1223.0,
          1221.0,
          1221.0,
          1221.0,
          1223.0,
          1223.0,
          1222.0,
          1222.0,
          1222.0,
          1223.0,
          1222.0,
          1224.0,
          1224.0,
          1222.0,
          1222.0,
          1223.0,
          1223.0,
          1222.0,
          1224.0,
          1224.0,
          1222.0,
          1221.0,
          1220.0,
          1220.0,
          1221.0,
          1221.0,
          1222.0,
          1222.0,
          1222.0,
          1225.0,
          1223.0,
          1221.0,
          1220.0,
          1221.0,
          1222.0,
          1222.0,
          1222.0,
          1222.0,
          1221.0,
          1221.0,
          1221.0,
          1221.0,
          1222.0,
          1221.0,
          1221.0,
          1221.0,
          1221.0,
          1220.0,
          1218.0,
          1221.0,
          1224.0,
          1221.0,
          1220.0,
          1219.0,
          1220.0,
          1221.0,
          1218.0,
          1217.0,
          1220.0,
          1222.0,
          1217.0,
          1214.0,
          1215.0,
          1213.0,
          1210.0,
          1211.0,
          1213.0,
          1215.0,
          1216.0,
          1219.0,
          1223.0,
          1223.0,
          1221.0,
          1224.0,
          1225.0,
          1225.0,
          1224.0,
          1224.0,
          1224.0,
          1224.0,
          1224.0,
          1222.0,
          1222.0,
          1222.0,
          1222.0,
          1223.0,
          1223.0,
          1225.0,
          1225.0
        ],
        "WindowWidth": [
          2926.0,
          2926.0,
          2923.0,
          2912.0,
          2906.0,
          2906.0,
          2905.0,
          2909.0,
          2909.0,
          2908.0,
          2909.0,
          2914.0,
          2920.0,
          2917.0,
          2913.0,
          2916.0,
          2921.0,
          2922.0,
          2917.0,
          2915.0,
          2922.0,
          2922.0,
          2918.0,
          2916.0,
          2914.0,
          2915.0,
          2916.0,
          2911.0,
          2909.0,
          2918.0,
          2918.0,
          2913.0,
          2909.0,
          2911.0,
          2916.0,
          2915.0,
          2912.0,
          2911.0,
          2918.0,
          2920.0,
          2914.0,
          2909.0,
          2908.0,
          2916.0,
          2922.0,
          2926.0,
          2923.0,
          2917.0,
          2918.0,
          2918.0,
          2922.0,
          2919.0,
          2917.0,
          2921.0,
          2920.0,
          2919.0,
          2920.0,
          2922.0,
          2923.0,
          2920.0,
          2919.0,
          2921.0,
          2921.0,
          2925.0,
          2926.0,
          2926.0,
          2925.0,
          2923.0,
          2927.0,
          2929.0,
          2928.0,
          2926.0,
          2924.0,
          2931.0,
          2931.0,
          2923.0,
          2920.0,
          2919.0,
          2923.0,
          2926.0,
          2923.0,
          2920.0,
          2922.0,
          2925.0,
          2923.0,
          2923.0,
          2929.0,
          2926.0,
          2921.0,
          2920.0,
          2925.0,
          2923.0,
          2922.0,
          2929.0,
          2930.0,
          2921.0,
          2917.0,
          2914.0,
          2917.0,
          2919.0,
          2919.0,
          2919.0,
          2920.0,
          2922.0,
          2930.0,
          2927.0,
          2921.0,
          2919.0,
          2921.0,
          2922.0,
          2921.0,
          2924.0,
          2919.0,
          2916.0,
          2917.0,
          2916.0,
          2919.0,
          2920.0,
          2919.0,
          2918.0,
          2919.0,
          2918.0,
          2914.0,
          2914.0,
          2921.0,
          2925.0,
          2919.0,
          2915.0,
          2914.0,
