{
  "aor": 0.0032368711656441712,
  "aqi": 0.005099063680981595,
  "bids_meta": {
    "AcquisitionMatrixPE": 96,
    "AcquisitionNumber": 1,
    "AcquisitionTime": "19:02:12.687500",
    "BandwidthPerPixelPhaseEncode": 52.083,
    "BaseResolution": 96,
    "BodyPartExamined": "HEAD",
    "ConversionSoftware": "dcm2niix",
    "ConversionSoftwareVersion": "v1.0.20180622 GCC6.3.0",
    "DerivedVendorReportedEchoSpacing": 0.000600004,
    "DeviceSerialNumber": "18926",
    "DwellTime": 2.6e-06,
    "EchoTime": 0.025,
    "EffectiveEchoSpacing": 0.000200001,
    "FlipAngle": 50,
    "ImageOrientationPatientDICOM": [
      0.999992,
      0.00107587,
      0.0039606,
      2.16778e-10,
      0.965029,
      -0.262144
    ],
    "ImageType": [
      "ORIGINAL",
      "PRIMARY",
      "M",
      "ND",
      "ECHO",
      "00",
      "MOSAIC"
    ],
    "InPlanePhaseEncodingDirectionDICOM": "ROW",
    "InstitutionName": "NIMH",
    "InstitutionalDepartmentName": "Department",
    "MRAcquisitionType": "2D",
    "MagneticFieldStrength": 6.98,
    "Manufacturer": "Siemens",
    "ManufacturersModelName": "Investigational_Device_7T",
    "Modality": "MR",
    "ParallelReductionFactorInPlane": 3,
    "PartialFourier": 1,
    "PatientPosition": "HFS",
    "PercentPhaseFOV": 100,
    "PhaseEncodingDirection": "i",
    "PhaseEncodingSteps": 94,
    "PhaseResolution": 1,
    "PixelBandwidth": 2003,
    "ProcedureStepDescription": "UserProtocols_gonzalez",
    "ProtocolName": "NIH_EPI_2.0iso_TR2_Run05",
    "PulseSequenceDetails": "%CustomerSeq%_inati_nih_epi",
    "ReceiveCoilName": "32Ch_Head_7T",
    "ReconMatrixPE": 96,
    "RepetitionTime": 2,
    "SAR": 0.0759966,
    "ScanningSequence": "EP",
    "SequenceName": "epfid2d1_96",
    "SequenceVariant": "SK",
    "SeriesDescription": "NIH_EPI_2.0iso_TR2_Run05",
    "SeriesNumber": 9,
    "ShimSetting": [
      -84,
      226,
      870,
      988,
      -135,
      780,
      -134,
      -388
    ],
    "SliceThickness": 2,
    "SliceTiming": [
      1.0025,
      0,
      1.04,
      0.035,
      1.0775,
      0.0725,
      1.115,
      0.11,
      1.1525,
      0.1475,
      1.1875,
      0.185,
      1.225,
      0.2225,
      1.2625,
      0.26,
      1.3,
      0.2975,
      1.3375,
      0.3325,
      1.375,
      0.37,
      1.4125,
      0.4075,
      1.45,
      0.445,
      1.485,
      0.4825,
      1.5225,
      0.52,
      1.56,
      0.5575,
      1.5975,
      0.595,
      1.635,
      0.63,
      1.6725,
      0.6675,
      1.71,
      0.705,
      1.7475,
      0.7425,
      1.7825,
      0.78,
      1.82,
      0.8175,
      1.8575,
      0.855,
      1.895,
      0.89,
      1.9325,
      0.9275,
      1.97,
      0.965
    ],
    "SoftwareVersions": "syngo_MR_B17",
    "SpacingBetweenSlices": 2,
    "StationName": "FMRIFD7T",
    "TaskName": "HalfFovNoTask",
    "TotalReadoutTime": 0.0190001,
    "TxRefAmp": 312,
    "dataset": "ds001555",
    "dcmmeta_affine": [
      [
        -1.9999831914901733,
        4.3355619094853637e-10,
        0.008208254352211952,
        95.76705169677734
      ],
      [
        -0.002151742111891508,
        1.9300576448440552,
        -0.5242831110954285,
        -47.04811477661133
      ],
      [
        0.00792120210826397,
        0.5242875218391418,
        1.9300414323806763,
        -53.087623596191406
      ],
      [
        0.0,
        0.0,
        0.0,
        1.0
      ]
    ],
    "dcmmeta_reorient_transform": [
      [
        0.0,
        -1.0,
        0.0,
        95.0
      ],
      [
        1.0,
        0.0,
        0.0,
        0.0
      ],
      [
        0.0,
        0.0,
        1.0,
        0.0
      ],
      [
        0.0,
        0.0,
        0.0,
        1.0
      ]
    ],
    "dcmmeta_shape": [
      96,
      96,
      54,
      164
    ],
    "dcmmeta_slice_dim": 2,
    "dcmmeta_version": 0.6,
    "global": {
      "const": {
        "AcquisitionMatrix": [
          0,
          96,
          96,
          0
        ],
        "AngioFlag": "N",
        "BitsAllocated": 16,
        "BitsStored": 12,
        "BodyPartExamined": "HEAD",
        "Columns": 768,
        "EchoNumbers": 1,
        "EchoTime": 25.0,
        "EchoTrainLength": 1,
        "FlipAngle": 50.0,
        "HighBit": 11,
        "ImageOrientationPatient": [
          0.99999157803541,
          0.00107587108734,
          0.00396060092,
          2.167781e-10,
          0.96502883202267,
          -0.2621437646883
        ],
        "ImagePositionPatient": [
          -767.7613927785,
          -785.52972561764,
          170.21877850821
        ],
        "ImageType": [
          "ORIGINAL",
          "PRIMARY",
          "M",
          "ND",
          "ECHO_00",
          "MOSAIC"
        ],
        "ImagedNucleus": "1H",
        "ImagingFrequency": 297.204912,
        "InPlanePhaseEncodingDirection": "ROW",
        "LargestImagePixelValue": 4095,
        "MRAcquisitionType": "2D",
        "MagneticFieldStrength": 6.98,
        "Manufacturer": "SIEMENS",
        "ManufacturerModelName": "Investigational_Device_7T",
        "Modality": "MR",
        "NumberOfAverages": 1.0,
        "NumberOfPhaseEncodingSteps": 94,
        "PercentPhaseFieldOfView": 100.0,
        "PercentSampling": 100.0,
        "PerformedProcedureStepStartTime": "180945.046000",
        "PhotometricInterpretation": "MONOCHROME2",
        "PixelBandwidth": 2003.0,
        "PixelRepresentation": 0,
        "PixelSpacing": [
          2.0,
          2.0
        ],
        "PositionReferenceIndicator": "",
        "ProtocolName": "NIH_EPI_2.0iso_TR2_Run05",
        "RepetitionTime": 2000.0,
        "Rows": 768,
        "SAR": 0.07599660351215,
        "SamplesPerPixel": 1,
        "ScanningSequence": "EP",
        "SequenceName": "epfid2d1_96",
        "SequenceVariant": "SK",
        "SeriesDescription": "NIH_EPI_2.0iso_TR2_Run05",
        "SeriesNumber": 9,
        "SliceLocation": -38.50434946979,
        "SliceThickness": 2.0,
        "SmallestImagePixelValue": 0,
        "SoftwareVersions": "syngo MR B17",
        "SpacingBetweenSlices": 1.9999999913969,
        "TransmitCoilName": "32Ch_Head_7T",
        "VariableFlipAngleFlag": "N",
        "WindowCenterWidthExplanation": "Algo1",
        "dBdt": 0.0
      },
      "slices": {}
    },
    "modality": "bold",
    "run_id": 6,
    "session_id": "08",
    "subject_id": "001",
    "task_id": "HalfFovNoTask",
    "time": {
      "samples": {
        "AcquisitionNumber": [
          1,
          2,
          3,
          4,
          5,
          6,
          7,
          8,
          9,
          10,
          11,
          12,
          13,
          14,
          15,
          16,
          17,
          18,
          19,
          20,
          21,
          22,
          23,
          24,
          25,
          26,
          27,
          28,
          29,
          30,
          31,
          32,
          33,
          34,
          35,
          36,
          37,
          38,
          39,
          40,
          41,
          42,
          43,
          44,
          45,
          46,
          47,
          48,
          49,
          50,
          51,
          52,
          53,
          54,
          55,
          56,
          57,
          58,
          59,
          60,
          61,
          62,
          63,
          64,
          65,
          66,
          67,
          68,
          69,
          70,
          71,
          72,
          73,
          74,
          75,
          76,
          77,
          78,
          79,
          80,
          81,
          82,
          83,
          84,
          85,
          86,
          87,
          88,
          89,
          90,
          91,
          92,
          93,
          94,
          95,
          96,
          97,
          98,
          99,
          100,
          101,
          102,
          103,
          104,
          105,
          106,
          107,
          108,
          109,
          110,
          111,
          112,
          113,
          114,
          115,
          116,
          117,
          118,
          119,
          120,
          121,
          122,
          123,
          124,
          125,
          126,
          127,
          128,
          129,
          130,
          131,
          132,
          133,
          134,
          135,
          136,
          137,
          138,
          139,
          140,
          141,
          142,
          143,
          144,
          145,
          146,
          147,
          148,
          149,
          150,
          151,
          152,
          153,
          154,
          155,
          156,
          157,
          158,
          159,
          160,
          161,
          162,
          163,
          164
        ],
        "AcquisitionTime": [
          "190212.687500",
          "190216.705000",
          "190218.712500",
          "190220.720000",
          "190222.727500",
          "190224.735000",
          "190226.745000",
          "190228.752500",
          "190230.760000",
          "190232.767500",
          "190234.775000",
          "190236.785000",
          "190238.792500",
          "190240.800000",
          "190242.807500",
          "190244.817500",
          "190246.825000",
          "190248.832500",
          "190250.840000",
          "190252.847500",
          "190254.857500",
          "190256.865000",
          "190258.872500",
          "190300.880000",
          "190302.887500",
          "190304.897500",
          "190306.905000",
          "190308.912500",
          "190310.920000",
          "190312.927500",
          "190314.937500",
          "190316.945000",
          "190318.952500",
          "190320.960000",
          "190322.970000",
          "190324.977500",
          "190326.985000",
          "190328.992500",
          "190331.000000",
          "190333.010000",
          "190335.017500",
          "190337.025000",
          "190339.032500",
          "190341.040000",
          "190343.050000",
          "190345.057500",
          "190347.065000",
          "190349.072500",
          "190351.082500",
          "190353.090000",
          "190355.097500",
          "190357.105000",
          "190359.112500",
          "190401.122500",
          "190403.130000",
          "190405.137500",
          "190407.145000",
          "190409.152500",
          "190411.162500",
          "190413.170000",
          "190415.177500",
          "190417.185000",
          "190419.195000",
          "190421.202500",
          "190423.210000",
          "190425.217500",
          "190427.225000",
          "190429.235000",
          "190431.242500",
          "190433.250000",
          "190435.257500",
          "190437.265000",
          "190439.275000",
          "190441.282500",
          "190443.290000",
          "190445.297500",
          "190447.305000",
          "190449.315000",
          "190451.322500",
          "190453.330000",
          "190455.337500",
          "190457.347500",
          "190459.355000",
          "190501.362500",
          "190503.370000",
          "190505.377500",
          "190507.387500",
          "190509.395000",
          "190511.402500",
          "190513.410000",
          "190515.417500",
          "190517.427500",
          "190519.435000",
          "190521.442500",
          "190523.450000",
          "190525.460000",
          "190527.467500",
          "190529.475000",
          "190531.482500",
          "190533.490000",
          "190535.500000",
          "190537.507500",
          "190539.515000",
          "190541.522500",
          "190543.530000",
          "190545.540000",
          "190547.547500",
          "190549.555000",
          "190551.562500",
          "190553.572500",
          "190555.580000",
          "190557.587500",
          "190559.595000",
          "190601.602500",
          "190603.612500",
          "190605.620000",
          "190607.627500",
          "190609.635000",
          "190611.642500",
          "190613.652500",
          "190615.660000",
          "190617.667500",
          "190619.675000",
          "190621.682500",
          "190623.692500",
          "190625.700000",
          "190627.707500",
          "190629.715000",
          "190631.725000",
          "190633.732500",
          "190635.740000",
          "190637.747500",
          "190639.755000",
          "190641.765000",
          "190643.772500",
          "190645.780000",
          "190647.787500",
          "190649.795000",
          "190651.805000",
          "190653.812500",
          "190655.820000",
          "190657.827500",
          "190659.837500",
          "190701.845000",
          "190703.852500",
          "190705.860000",
          "190707.867500",
          "190709.877500",
          "190711.885000",
          "190713.892500",
          "190715.900000",
          "190717.907500",
          "190719.917500",
          "190721.925000",
          "190723.932500",
          "190725.940000",
          "190727.950000",
          "190729.957500",
          "190731.965000",
          "190733.972500",
          "190735.980000",
          "190737.990000",
          "190739.997500",
          "190742.005000"
        ],
        "ContentTime": [
          "190300.015000",
          "190300.015000",
          "190300.015000",
          "190300.015000",
          "190300.031000",
          "190300.031000",
          "190300.031000",
          "190300.031000",
          "190300.031000",
          "190300.031000",
          "190300.031000",
          "190300.046000",
          "190300.046000",
          "190300.046000",
          "190300.046000",
          "190300.046000",
          "190300.046000",
          "190300.046000",
          "190300.062000",
          "190300.062000",
          "190300.062000",
          "190300.062000",
          "190340.000000",
          "190340.000000",
          "190340.015000",
          "190340.015000",
          "190340.015000",
          "190340.015000",
          "190340.031000",
          "190340.031000",
          "190340.031000",
          "190340.031000",
          "190340.031000",
          "190340.031000",
          "190340.046000",
          "190340.046000",
          "190340.046000",
          "190340.046000",
          "190340.046000",
          "190340.046000",
          "190340.046000",
          "190340.062000",
          "190400.000000",
          "190400.000000",
          "190400.015000",
          "190400.015000",
          "190400.015000",
          "190400.015000",
          "190400.015000",
          "190400.015000",
          "190400.031000",
          "190400.031000",
          "190440.000000",
          "190440.000000",
          "190440.015000",
          "190440.015000",
          "190440.015000",
          "190440.015000",
          "190440.015000",
          "190440.031000",
          "190440.031000",
          "190440.031000",
          "190440.031000",
          "190440.031000",
          "190440.046000",
          "190440.046000",
          "190440.046000",
          "190440.046000",
          "190440.062000",
          "190440.062000",
          "190440.062000",
          "190440.062000",
          "190520.000000",
          "190520.000000",
          "190520.015000",
          "190520.031000",
          "190520.031000",
          "190520.031000",
          "190520.031000",
          "190520.031000",
          "190520.046000",
          "190520.046000",
          "190520.046000",
          "190520.046000",
          "190520.046000",
          "190520.046000",
          "190520.046000",
          "190520.062000",
          "190520.062000",
          "190520.062000",
          "190520.078000",
          "190520.078000",
          "190600.000000",
          "190600.015000",
          "190600.015000",
          "190600.015000",
          "190600.062000",
          "190600.062000",
          "190600.062000",
          "190600.062000",
          "190600.062000",
          "190600.078000",
          "190600.078000",
          "190600.078000",
          "190600.078000",
          "190600.078000",
          "190600.078000",
          "190600.078000",
          "190600.093000",
          "190600.093000",
          "190600.093000",
          "190600.109000",
          "190640.000000",
          "190640.000000",
          "190640.015000",
          "190640.015000",
          "190640.015000",
          "190640.015000",
          "190640.015000",
          "190640.015000",
          "190640.031000",
          "190640.031000",
          "190640.031000",
          "190640.031000",
          "190640.031000",
          "190640.031000",
          "190640.031000",
          "190640.046000",
          "190640.046000",
          "190640.046000",
          "190640.046000",
          "190640.046000",
          "190640.046000",
          "190740.000000",
          "190740.000000",
          "190740.015000",
          "190740.015000",
          "190740.031000",
          "190740.031000",
          "190740.031000",
          "190740.031000",
          "190740.031000",
          "190740.031000",
          "190740.046000",
          "190740.046000",
          "190740.046000",
          "190740.046000",
          "190740.046000",
          "190740.062000",
          "190740.062000",
          "190740.062000",
          "190740.062000",
          "190740.062000",
          "190740.062000",
          "190740.062000",
          "190740.078000",
          "190740.078000",
          "190740.078000",
          "190740.078000",
          "190740.078000",
          "190740.078000",
          "190740.078000",
          "190741.968000",
          "190741.968000"
        ],
        "InstanceCreationTime": [
          "190300.015000",
          "190300.015000",
          "190300.015000",
          "190300.015000",
          "190300.031000",
          "190300.031000",
          "190300.031000",
          "190300.031000",
          "190300.031000",
          "190300.031000",
          "190300.031000",
          "190300.046000",
          "190300.046000",
          "190300.046000",
          "190300.046000",
          "190300.046000",
          "190300.046000",
          "190300.046000",
          "190300.062000",
          "190300.062000",
          "190300.062000",
          "190300.062000",
          "190340.000000",
          "190340.000000",
          "190340.015000",
          "190340.015000",
          "190340.015000",
          "190340.015000",
          "190340.031000",
          "190340.031000",
          "190340.031000",
          "190340.031000",
          "190340.031000",
          "190340.031000",
          "190340.046000",
          "190340.046000",
          "190340.046000",
          "190340.046000",
          "190340.046000",
          "190340.046000",
          "190340.046000",
          "190340.062000",
          "190400.000000",
          "190400.000000",
          "190400.015000",
          "190400.015000",
          "190400.015000",
          "190400.015000",
          "190400.015000",
          "190400.015000",
          "190400.031000",
          "190400.031000",
          "190440.000000",
          "190440.000000",
          "190440.015000",
          "190440.015000",
          "190440.015000",
          "190440.015000",
          "190440.015000",
          "190440.031000",
          "190440.031000",
          "190440.031000",
          "190440.031000",
          "190440.031000",
          "190440.046000",
          "190440.046000",
          "190440.046000",
          "190440.046000",
          "190440.062000",
          "190440.062000",
          "190440.062000",
          "190440.062000",
          "190520.000000",
          "190520.000000",
          "190520.015000",
          "190520.031000",
          "190520.031000",
          "190520.031000",
          "190520.031000",
          "190520.031000",
          "190520.046000",
          "190520.046000",
          "190520.046000",
          "190520.046000",
          "190520.046000",
          "190520.046000",
          "190520.046000",
          "190520.062000",
          "190520.062000",
          "190520.062000",
          "190520.078000",
          "190520.078000",
          "190600.000000",
          "190600.015000",
          "190600.015000",
          "190600.015000",
          "190600.062000",
          "190600.062000",
          "190600.062000",
          "190600.062000",
          "190600.062000",
          "190600.078000",
          "190600.078000",
          "190600.078000",
          "190600.078000",
          "190600.078000",
          "190600.078000",
          "190600.078000",
          "190600.093000",
          "190600.093000",
          "190600.093000",
          "190600.109000",
          "190640.000000",
          "190640.000000",
          "190640.015000",
          "190640.015000",
          "190640.015000",
          "190640.015000",
          "190640.015000",
          "190640.015000",
          "190640.031000",
          "190640.031000",
          "190640.031000",
          "190640.031000",
          "190640.031000",
          "190640.031000",
          "190640.031000",
          "190640.046000",
          "190640.046000",
          "190640.046000",
          "190640.046000",
          "190640.046000",
          "190640.046000",
          "190740.000000",
          "190740.000000",
          "190740.015000",
          "190740.015000",
          "190740.031000",
          "190740.031000",
          "190740.031000",
          "190740.031000",
          "190740.031000",
          "190740.031000",
          "190740.046000",
          "190740.046000",
          "190740.046000",
          "190740.046000",
          "190740.046000",
          "190740.062000",
          "190740.062000",
          "190740.062000",
          "190740.062000",
          "190740.062000",
          "190740.062000",
          "190740.062000",
          "190740.078000",
          "190740.078000",
          "190740.078000",
          "190740.078000",
          "190740.078000",
          "190740.078000",
          "190740.078000",
          "190741.968000",
          "190741.968000"
        ],
        "InstanceNumber": [
          1,
          2,
          3,
          4,
          5,
          6,
          7,
          8,
          9,
          10,
          11,
          12,
          13,
          14,
          15,
          16,
          17,
          18,
          19,
          20,
          21,
          22,
          23,
          24,
          25,
          26,
          27,
          28,
          29,
          30,
          31,
          32,
          33,
          34,
          35,
          36,
          37,
          38,
          39,
          40,
          41,
          42,
          43,
          44,
          45,
          46,
          47,
          48,
          49,
          50,
          51,
          52,
          53,
          54,
          55,
          56,
          57,
          58,
          59,
          60,
          61,
          62,
          63,
          64,
          65,
          66,
          67,
          68,
          69,
          70,
          71,
          72,
          73,
          74,
          75,
          76,
          77,
          78,
          79,
          80,
          81,
          82,
          83,
          84,
          85,
          86,
          87,
          88,
          89,
          90,
          91,
          92,
          93,
          94,
          95,
          96,
          97,
          98,
          99,
          100,
          101,
          102,
          103,
          104,
          105,
          106,
          107,
          108,
          109,
          110,
          111,
          112,
          113,
          114,
          115,
          116,
          117,
          118,
          119,
          120,
          121,
          122,
          123,
          124,
          125,
          126,
          127,
          128,
          129,
          130,
          131,
          132,
          133,
          134,
          135,
          136,
          137,
          138,
          139,
          140,
          141,
          142,
          143,
          144,
          145,
          146,
          147,
          148,
          149,
          150,
          151,
          152,
          153,
          154,
          155,
          156,
          157,
          158,
          159,
          160,
          161,
          162,
          163,
          164
        ],
        "WindowCenter": [
          1228.0,
          1224.0,
          1220.0,
          1221.0,
          1224.0,
          1225.0,
          1221.0,
          1218.0,
          1217.0,
          1218.0,
          1219.0,
          1219.0,
          1218.0,
          1217.0,
          1217.0,
          1216.0,
          1217.0,
          1218.0,
          1217.0,
          1218.0,
          1217.0,
          1219.0,
          1219.0,
          1219.0,
          1220.0,
          1218.0,
          1217.0,
          1220.0,
          1220.0,
          1221.0,
          1219.0,
          1217.0,
          1219.0,
          1219.0,
          1219.0,
          1219.0,
          1218.0,
          1220.0,
          1221.0,
          1220.0,
          1219.0,
          1218.0,
          1219.0,
          1219.0,
          1217.0,
          1217.0,
          1215.0,
          1216.0,
          1217.0,
          1216.0,
          1214.0,
          1213.0,
          1213.0,
          1216.0,
          1218.0,
          1218.0,
          1218.0,
          1218.0,
          1219.0,
          1218.0,
          1218.0,
          1219.0,
          1220.0,
          1221.0,
          1220.0,
          1219.0,
          1221.0,
          1221.0,
          1220.0,
          1220.0,
          1221.0,
          1219.0,
          1218.0,
          1217.0,
          1218.0,
          1219.0,
          1220.0,
          1220.0,
          1218.0,
          1217.0,
          1217.0,
          1218.0,
          1220.0,
          1219.0,
          1219.0,
          1218.0,
          1219.0,
          1218.0,
          1218.0,
          1217.0,
          1217.0,
          1217.0,
          1217.0,
          1218.0,
          1219.0,
          1220.0,
          1222.0,
          1221.0,
          1221.0,
          1221.0,
          1222.0,
          1223.0,
          1224.0,
          1222.0,
          1222.0,
          1222.0,
          1219.0,
          1218.0,
          1218.0,
          1218.0,
          1219.0,
          1218.0,
          1218.0,
          1219.0,
          1218.0,
          1220.0,
          1220.0,
          1225.0,
          1226.0,
          1223.0,
          1218.0,
          1216.0,
          1215.0,
          1214.0,
          1213.0,
          1215.0,
          1217.0,
          1221.0,
          1223.0,
          1221.0,
          1223.0,
          1224.0,
          1225.0,
          1224.0,
          1222.0,
          1221.0,
          1221.0,
          1221.0,
          1223.0,
          1224.0,
          1223.0,
          1222.0,
          1220.0,
          1220.0,
          1220.0,
          1221.0,
          1219.0,
          1219.0,
          1221.0,
          1222.0,
          1220.0,
          1219.0,
          1218.0,
          1220.0,
          1218.0,
          1218.0,
          1220.0,
          1222.0,
          1223.0,
          1221.0,
          1219.0,
          1217.0,
          1217.0,
          1226.0
        ],
        "WindowWidth": [
          2936.0,
          2928.0,
          2920.0,
          2927.0,
          2931.0,
          2930.0,
          2920.0,
          2911.0,
          2914.0,
          2916.0,
          2917.0,
          2917.0,
          2914.0,
          2912.0,
          2910.0,
          2909.0,
          2913.0,
          2914.0,
          2913.0,
          2914.0,
          2916.0,
          2917.0,
          2919.0,
          2921.0,
          2917.0,
          2914.0,
          2914.0,
          2920.0,
          2923.0,
          2922.0,
          2916.0,
          2912.0,
          2916.0,
          2918.0,
          2920.0,
          2921.0,
          2920.0,
          2924.0,
          2923.0,
          2920.0,
          2918.0,
          2918.0,
          2919.0,
          2918.0,
          2914.0,
          2911.0,
          2910.0,
          2912.0,
          2915.0,
          2912.0,
          2907.0,
          2904.0,
          2906.0,
          2912.0,
          2915.0,
          2914.0,
          2917.0,
          2918.0,
          2916.0,
          2914.0,
          2916.0,
          2922.0,
          2924.0,
          2923.0,
          2922.0,
          2921.0,
          2924.0,
          2923.0,
          2920.0,
          2921.0,
          2923.0,
          2920.0,
          2916.0,
          2914.0,
          2917.0,
          2922.0,
          2923.0,
          2922.0,
          2918.0,
          2916.0,
          2917.0,
          2919.0,
          2924.0,
          2921.0,
          2919.0,
          2922.0,
          2920.0,
          2920.0,
          2917.0,
          2915.0,
          2917.0,
          2916.0,
          2915.0,
          2915.0,
          2917.0,
          2923.0,
          2926.0,
          2925.0,
          2922.0,
          2924.0,
          2925.0,
          2927.0,
          2929.0,
          2923.0,
          2928.0,
          2924.0,
          2917.0,
          2916.0,
          2913.0,
          2912.0,
          2915.0,
          2915.0,
          2916.0,
          2916.0,
          2913.0,
          2916.0,
          2921.0,
          2937.0,
          2931.0,
          2920.0,
          2909.0,
          2905.0,
          2904.0,
          2904.0,
          2903.0,
          2906.0,
          2916.0,
          2923.0,
          2925.0,
