{
  "aor": 0.005448170731707318,
  "aqi": 0.007539011585365854,
  "bids_meta": {
    "AcquisitionMatrixPE": 96,
    "AcquisitionNumber": 1,
    "AcquisitionTime": "19:29:19.537500",
    "BandwidthPerPixelPhaseEncode": 52.083,
    "BaseResolution": 96,
    "BodyPartExamined": "HEAD",
    "ConversionSoftware": "dcm2niix",
    "ConversionSoftwareVersion": "v1.0.20180622 GCC6.3.0",
    "DerivedVendorReportedEchoSpacing": 0.000600004,
    "DeviceSerialNumber": "18926",
    "DwellTime": 2.6e-06,
    "EchoTime": 0.025,
    "EffectiveEchoSpacing": 0.000200001,
    "FlipAngle": 50,
    "ImageOrientationPatientDICOM": [
      0.999992,
      0.00107587,
      0.0039606,
      2.16778e-10,
      0.965029,
      -0.262144
    ],
    "ImageType": [
      "ORIGINAL",
      "PRIMARY",
      "M",
      "ND",
      "ECHO",
      "00",
      "MOSAIC"
    ],
    "InPlanePhaseEncodingDirectionDICOM": "ROW",
    "InstitutionName": "NIMH",
    "InstitutionalDepartmentName": "Department",
    "MRAcquisitionType": "2D",
    "MagneticFieldStrength": 6.98,
    "Manufacturer": "Siemens",
    "ManufacturersModelName": "Investigational_Device_7T",
    "Modality": "MR",
    "ParallelReductionFactorInPlane": 3,
    "PartialFourier": 1,
    "PatientPosition": "HFS",
    "PercentPhaseFOV": 100,
    "PhaseEncodingDirection": "i",
    "PhaseEncodingSteps": 94,
    "PhaseResolution": 1,
    "PixelBandwidth": 2003,
    "ProcedureStepDescription": "UserProtocols_gonzalez",
    "ProtocolName": "NIH_EPI_2.0iso_TR2_Run09",
    "PulseSequenceDetails": "%CustomerSeq%_inati_nih_epi",
    "ReceiveCoilName": "32Ch_Head_7T",
    "ReconMatrixPE": 96,
    "RepetitionTime": 2,
    "SAR": 0.0759966,
    "ScanningSequence": "EP",
    "SequenceName": "epfid2d1_96",
    "SequenceVariant": "SK",
    "SeriesDescription": "NIH_EPI_2.0iso_TR2_Run09",
    "SeriesNumber": 13,
    "ShimSetting": [
      -84,
      226,
      870,
      988,
      -135,
      780,
      -134,
      -388
    ],
    "SliceThickness": 2,
    "SliceTiming": [
      1.0025,
      0,
      1.04,
      0.0375,
      1.0775,
      0.0725,
      1.115,
      0.11,
      1.1525,
      0.1475,
      1.19,
      0.185,
      1.225,
      0.2225,
      1.2625,
      0.26,
      1.3,
      0.2975,
      1.3375,
      0.335,
      1.375,
      0.37,
      1.4125,
      0.4075,
      1.45,
      0.445,
      1.4875,
      0.4825,
      1.5225,
      0.52,
      1.56,
      0.5575,
      1.5975,
      0.595,
      1.635,
      0.6325,
      1.6725,
      0.6675,
      1.71,
      0.705,
      1.7475,
      0.7425,
      1.785,
      0.78,
      1.82,
      0.8175,
      1.8575,
      0.855,
      1.895,
      0.8925,
      1.9325,
      0.9275,
      1.97,
      0.965
    ],
    "SoftwareVersions": "syngo_MR_B17",
    "SpacingBetweenSlices": 2,
    "StationName": "FMRIFD7T",
    "TaskName": "HalfFovNoTask",
    "TotalReadoutTime": 0.0190001,
    "TxRefAmp": 312,
    "dataset": "ds001555",
    "dcmmeta_affine": [
      [
        -1.9999831914901733,
        4.3355619094853637e-10,
        0.008208254352211952,
        95.76705169677734
      ],
      [
        -0.002151742111891508,
        1.9300576448440552,
        -0.5242831110954285,
        -47.04811477661133
      ],
      [
        0.00792120210826397,
        0.5242875218391418,
        1.9300414323806763,
        -53.087623596191406
      ],
      [
        0.0,
        0.0,
        0.0,
        1.0
      ]
    ],
    "dcmmeta_reorient_transform": [
      [
        0.0,
        -1.0,
        0.0,
        95.0
      ],
      [
        1.0,
        0.0,
        0.0,
        0.0
      ],
      [
        0.0,
        0.0,
        1.0,
        0.0
      ],
      [
        0.0,
        0.0,
        0.0,
        1.0
      ]
    ],
    "dcmmeta_shape": [
      96,
      96,
      54,
      164
    ],
    "dcmmeta_slice_dim": 2,
    "dcmmeta_version": 0.6,
    "global": {
      "const": {
        "AcquisitionMatrix": [
          0,
          96,
          96,
          0
        ],
        "AngioFlag": "N",
        "BitsAllocated": 16,
        "BitsStored": 12,
        "BodyPartExamined": "HEAD",
        "Columns": 768,
        "EchoNumbers": 1,
        "EchoTime": 25.0,
        "EchoTrainLength": 1,
        "FlipAngle": 50.0,
        "HighBit": 11,
        "ImageOrientationPatient": [
          0.99999157803541,
          0.00107587108734,
          0.00396060092,
          2.167781e-10,
          0.96502883202267,
          -0.2621437646883
        ],
        "ImagePositionPatient": [
          -767.7613927785,
          -785.52972561764,
          170.21877850821
        ],
        "ImageType": [
          "ORIGINAL",
          "PRIMARY",
          "M",
          "ND",
          "ECHO_00",
          "MOSAIC"
        ],
        "ImagedNucleus": "1H",
        "ImagingFrequency": 297.204992,
        "InPlanePhaseEncodingDirection": "ROW",
        "LargestImagePixelValue": 4095,
        "MRAcquisitionType": "2D",
        "MagneticFieldStrength": 6.98,
        "Manufacturer": "SIEMENS",
        "ManufacturerModelName": "Investigational_Device_7T",
        "Modality": "MR",
        "NumberOfAverages": 1.0,
        "NumberOfPhaseEncodingSteps": 94,
        "PercentPhaseFieldOfView": 100.0,
        "PercentSampling": 100.0,
        "PerformedProcedureStepStartTime": "180945.046000",
        "PhotometricInterpretation": "MONOCHROME2",
        "PixelBandwidth": 2003.0,
        "PixelRepresentation": 0,
        "PixelSpacing": [
          2.0,
          2.0
        ],
        "PositionReferenceIndicator": "",
        "ProtocolName": "NIH_EPI_2.0iso_TR2_Run09",
        "RepetitionTime": 2000.0,
        "Rows": 768,
        "SAR": 0.07599660351215,
        "SamplesPerPixel": 1,
        "ScanningSequence": "EP",
        "SequenceName": "epfid2d1_96",
        "SequenceVariant": "SK",
        "SeriesDescription": "NIH_EPI_2.0iso_TR2_Run09",
        "SeriesNumber": 13,
        "SliceLocation": -38.50434946979,
        "SliceThickness": 2.0,
        "SmallestImagePixelValue": 0,
        "SoftwareVersions": "syngo MR B17",
        "SpacingBetweenSlices": 1.9999999913969,
        "TransmitCoilName": "32Ch_Head_7T",
        "VariableFlipAngleFlag": "N",
        "WindowCenterWidthExplanation": "Algo1",
        "dBdt": 0.0
      },
      "slices": {}
    },
    "modality": "bold",
    "run_id": 10,
    "session_id": "08",
    "subject_id": "001",
    "task_id": "HalfFovNoTask",
    "time": {
      "samples": {
        "AcquisitionNumber": [
          1,
          2,
          3,
          4,
          5,
          6,
          7,
          8,
          9,
          10,
          11,
          12,
          13,
          14,
          15,
          16,
          17,
          18,
          19,
          20,
          21,
          22,
          23,
          24,
          25,
          26,
          27,
          28,
          29,
          30,
          31,
          32,
          33,
          34,
          35,
          36,
          37,
          38,
          39,
          40,
          41,
          42,
          43,
          44,
          45,
          46,
          47,
          48,
          49,
          50,
          51,
          52,
          53,
          54,
          55,
          56,
          57,
          58,
          59,
          60,
          61,
          62,
          63,
          64,
          65,
          66,
          67,
          68,
          69,
          70,
          71,
          72,
          73,
          74,
          75,
          76,
          77,
          78,
          79,
          80,
          81,
          82,
          83,
          84,
          85,
          86,
          87,
          88,
          89,
          90,
          91,
          92,
          93,
          94,
          95,
          96,
          97,
          98,
          99,
          100,
          101,
          102,
          103,
          104,
          105,
          106,
          107,
          108,
          109,
          110,
          111,
          112,
          113,
          114,
          115,
          116,
          117,
          118,
          119,
          120,
          121,
          122,
          123,
          124,
          125,
          126,
          127,
          128,
          129,
          130,
          131,
          132,
          133,
          134,
          135,
          136,
          137,
          138,
          139,
          140,
          141,
          142,
          143,
          144,
          145,
          146,
          147,
          148,
          149,
          150,
          151,
          152,
          153,
          154,
          155,
          156,
          157,
          158,
          159,
          160,
          161,
          162,
          163,
          164
        ],
        "AcquisitionTime": [
          "192919.537500",
          "192923.555000",
          "192925.562500",
          "192927.570000",
          "192929.577500",
          "192931.587500",
          "192933.595000",
          "192935.602500",
          "192937.610000",
          "192939.617500",
          "192941.627500",
          "192943.635000",
          "192945.642500",
          "192947.650000",
          "192949.657500",
          "192951.667500",
          "192953.675000",
          "192955.682500",
          "192957.690000",
          "192959.697500",
          "193001.707500",
          "193003.715000",
          "193005.722500",
          "193007.730000",
          "193009.740000",
          "193011.747500",
          "193013.755000",
          "193015.762500",
          "193017.770000",
          "193019.780000",
          "193021.787500",
          "193023.795000",
          "193025.802500",
          "193027.810000",
          "193029.820000",
          "193031.827500",
          "193033.835000",
          "193035.842500",
          "193037.852500",
          "193039.860000",
          "193041.867500",
          "193043.875000",
          "193045.882500",
          "193047.892500",
          "193049.900000",
          "193051.907500",
          "193053.915000",
          "193055.922500",
          "193057.932500",
          "193059.940000",
          "193101.947500",
          "193103.955000",
          "193105.965000",
          "193107.972500",
          "193109.980000",
          "193111.987500",
          "193113.995000",
          "193116.005000",
          "193118.012500",
          "193120.020000",
          "193122.027500",
          "193124.035000",
          "193126.045000",
          "193128.052500",
          "193130.060000",
          "193132.067500",
          "193134.075000",
          "193136.085000",
          "193138.092500",
          "193140.100000",
          "193142.107500",
          "193144.117500",
          "193146.125000",
          "193148.132500",
          "193150.140000",
          "193152.147500",
          "193154.157500",
          "193156.165000",
          "193158.172500",
          "193200.180000",
          "193202.187500",
          "193204.197500",
          "193206.205000",
          "193208.212500",
          "193210.220000",
          "193212.230000",
          "193214.237500",
          "193216.245000",
          "193218.252500",
          "193220.260000",
          "193222.270000",
          "193224.277500",
          "193226.285000",
          "193228.292500",
          "193230.300000",
          "193232.310000",
          "193234.317500",
          "193236.325000",
          "193238.332500",
          "193240.342500",
          "193242.350000",
          "193244.357500",
          "193246.365000",
          "193248.372500",
          "193250.382500",
          "193252.390000",
          "193254.397500",
          "193256.405000",
          "193258.412500",
          "193300.422500",
          "193302.430000",
          "193304.437500",
          "193306.445000",
          "193308.452500",
          "193310.462500",
          "193312.470000",
          "193314.477500",
          "193316.485000",
          "193318.495000",
          "193320.502500",
          "193322.510000",
          "193324.517500",
          "193326.525000",
          "193328.535000",
          "193330.542500",
          "193332.550000",
          "193334.557500",
          "193336.565000",
          "193338.575000",
          "193340.582500",
          "193342.590000",
          "193344.597500",
          "193346.607500",
          "193348.615000",
          "193350.622500",
          "193352.630000",
          "193354.637500",
          "193356.647500",
          "193358.655000",
          "193400.662500",
          "193402.670000",
          "193404.677500",
          "193406.687500",
          "193408.695000",
          "193410.702500",
          "193412.710000",
          "193414.720000",
          "193416.727500",
          "193418.735000",
          "193420.742500",
          "193422.750000",
          "193424.760000",
          "193426.767500",
          "193428.775000",
          "193430.782500",
          "193432.790000",
          "193434.800000",
          "193436.807500",
          "193438.815000",
          "193440.822500",
          "193442.832500",
          "193444.840000",
          "193446.847500",
          "193448.855000"
        ],
        "ContentTime": [
          "193010.718000",
          "193010.718000",
          "193010.718000",
          "193010.734000",
          "193010.734000",
          "193010.734000",
          "193010.734000",
          "193010.734000",
          "193010.734000",
          "193010.734000",
          "193010.750000",
          "193010.750000",
          "193010.750000",
          "193010.750000",
          "193010.765000",
          "193010.765000",
          "193010.765000",
          "193010.765000",
          "193010.765000",
          "193010.765000",
          "193010.765000",
          "193010.781000",
          "193010.781000",
          "193010.781000",
          "193050.703000",
          "193050.703000",
          "193050.718000",
          "193050.718000",
          "193050.718000",
          "193050.718000",
          "193050.734000",
          "193050.734000",
          "193050.734000",
          "193050.734000",
          "193050.734000",
          "193050.734000",
          "193050.750000",
          "193050.750000",
          "193050.750000",
          "193050.750000",
          "193050.750000",
          "193050.750000",
          "193050.750000",
          "193050.765000",
          "193130.703000",
          "193130.703000",
          "193130.734000",
          "193130.734000",
          "193130.734000",
          "193130.750000",
          "193130.750000",
          "193130.750000",
          "193130.750000",
          "193130.750000",
          "193130.750000",
          "193130.750000",
          "193130.765000",
          "193130.765000",
          "193130.765000",
          "193130.765000",
          "193130.765000",
          "193130.765000",
          "193130.765000",
          "193130.781000",
          "193210.703000",
          "193210.703000",
          "193210.718000",
          "193210.718000",
          "193210.718000",
          "193210.734000",
          "193210.750000",
          "193210.750000",
          "193210.750000",
          "193210.750000",
          "193210.750000",
          "193210.750000",
          "193210.750000",
          "193210.765000",
          "193210.765000",
          "193210.765000",
          "193210.765000",
          "193210.765000",
          "193210.765000",
          "193210.765000",
          "193210.781000",
          "193310.703000",
          "193310.703000",
          "193310.718000",
          "193310.718000",
          "193310.718000",
          "193310.718000",
          "193310.718000",
          "193310.718000",
          "193310.734000",
          "193310.734000",
          "193310.734000",
          "193310.734000",
          "193310.734000",
          "193310.734000",
          "193310.734000",
          "193310.750000",
          "193310.750000",
          "193310.750000",
          "193310.750000",
          "193310.750000",
          "193310.765000",
          "193310.765000",
          "193310.765000",
          "193310.781000",
          "193310.781000",
          "193310.781000",
          "193310.781000",
          "193310.781000",
          "193310.796000",
          "193310.796000",
          "193350.703000",
          "193350.703000",
          "193350.718000",
          "193350.718000",
          "193350.718000",
          "193350.718000",
          "193350.718000",
          "193350.718000",
          "193350.734000",
          "193350.734000",
          "193350.734000",
          "193350.734000",
          "193350.750000",
          "193350.750000",
          "193350.750000",
          "193350.750000",
          "193350.750000",
          "193350.765000",
          "193350.765000",
          "193350.765000",
          "193430.703000",
          "193430.703000",
          "193430.718000",
          "193430.718000",
          "193430.718000",
          "193430.718000",
          "193430.718000",
          "193430.718000",
          "193430.734000",
          "193430.734000",
          "193430.734000",
          "193430.734000",
          "193430.734000",
          "193430.750000",
          "193430.750000",
          "193430.750000",
          "193430.750000",
          "193430.750000",
          "193430.750000",
          "193430.750000",
          "193448.656000",
          "193448.656000",
          "193448.671000",
          "193448.671000",
          "193448.671000",
          "193448.671000",
          "193448.671000",
          "193448.687000",
          "193448.687000"
        ],
        "InstanceCreationTime": [
          "193010.718000",
          "193010.718000",
          "193010.718000",
          "193010.734000",
          "193010.734000",
          "193010.734000",
          "193010.734000",
          "193010.734000",
          "193010.734000",
          "193010.734000",
          "193010.750000",
          "193010.750000",
          "193010.750000",
          "193010.750000",
          "193010.765000",
          "193010.765000",
          "193010.765000",
          "193010.765000",
          "193010.765000",
          "193010.765000",
          "193010.765000",
          "193010.781000",
          "193010.781000",
          "193010.781000",
          "193050.703000",
          "193050.703000",
          "193050.718000",
          "193050.718000",
          "193050.718000",
          "193050.718000",
          "193050.734000",
          "193050.734000",
          "193050.734000",
          "193050.734000",
          "193050.734000",
          "193050.734000",
          "193050.750000",
          "193050.750000",
          "193050.750000",
          "193050.750000",
          "193050.750000",
          "193050.750000",
          "193050.750000",
          "193050.765000",
          "193130.703000",
          "193130.703000",
          "193130.734000",
          "193130.734000",
          "193130.734000",
          "193130.750000",
          "193130.750000",
          "193130.750000",
          "193130.750000",
          "193130.750000",
          "193130.750000",
          "193130.750000",
          "193130.765000",
          "193130.765000",
          "193130.765000",
          "193130.765000",
          "193130.765000",
          "193130.765000",
          "193130.765000",
          "193130.781000",
          "193210.703000",
          "193210.703000",
          "193210.718000",
          "193210.718000",
          "193210.718000",
          "193210.734000",
          "193210.750000",
          "193210.750000",
          "193210.750000",
          "193210.750000",
          "193210.750000",
          "193210.750000",
          "193210.750000",
          "193210.765000",
          "193210.765000",
          "193210.765000",
          "193210.765000",
          "193210.765000",
          "193210.765000",
          "193210.765000",
          "193210.781000",
          "193310.703000",
          "193310.703000",
          "193310.718000",
          "193310.718000",
          "193310.718000",
          "193310.718000",
          "193310.718000",
          "193310.718000",
          "193310.734000",
          "193310.734000",
          "193310.734000",
          "193310.734000",
          "193310.734000",
          "193310.734000",
          "193310.734000",
          "193310.750000",
          "193310.750000",
          "193310.750000",
          "193310.750000",
          "193310.750000",
          "193310.765000",
          "193310.765000",
          "193310.765000",
          "193310.781000",
          "193310.781000",
          "193310.781000",
          "193310.781000",
          "193310.781000",
          "193310.796000",
          "193310.796000",
          "193350.703000",
          "193350.703000",
          "193350.718000",
          "193350.718000",
          "193350.718000",
          "193350.718000",
          "193350.718000",
          "193350.718000",
          "193350.734000",
          "193350.734000",
          "193350.734000",
          "193350.734000",
          "193350.750000",
          "193350.750000",
          "193350.750000",
          "193350.750000",
          "193350.750000",
          "193350.765000",
          "193350.765000",
          "193350.765000",
          "193430.703000",
          "193430.703000",
          "193430.718000",
          "193430.718000",
          "193430.718000",
          "193430.718000",
          "193430.718000",
          "193430.718000",
          "193430.734000",
          "193430.734000",
          "193430.734000",
          "193430.734000",
          "193430.734000",
          "193430.750000",
          "193430.750000",
          "193430.750000",
          "193430.750000",
          "193430.750000",
          "193430.750000",
          "193430.750000",
          "193448.656000",
          "193448.656000",
          "193448.671000",
          "193448.671000",
          "193448.671000",
          "193448.671000",
          "193448.671000",
          "193448.687000",
          "193448.687000"
        ],
        "InstanceNumber": [
          1,
          2,
          3,
          4,
          5,
          6,
          7,
          8,
          9,
          10,
          11,
          12,
          13,
          14,
          15,
          16,
          17,
          18,
          19,
          20,
          21,
          22,
          23,
          24,
          25,
          26,
          27,
          28,
          29,
          30,
          31,
          32,
          33,
          34,
          35,
          36,
          37,
          38,
          39,
          40,
          41,
          42,
          43,
          44,
          45,
          46,
          47,
          48,
          49,
          50,
          51,
          52,
          53,
          54,
          55,
          56,
          57,
          58,
          59,
          60,
          61,
          62,
          63,
          64,
          65,
          66,
          67,
          68,
          69,
          70,
          71,
          72,
          73,
          74,
          75,
          76,
          77,
          78,
          79,
          80,
          81,
          82,
          83,
          84,
          85,
          86,
          87,
          88,
          89,
          90,
          91,
          92,
          93,
          94,
          95,
          96,
          97,
          98,
          99,
          100,
          101,
          102,
          103,
          104,
          105,
          106,
          107,
          108,
          109,
          110,
          111,
          112,
          113,
          114,
          115,
          116,
          117,
          118,
          119,
          120,
          121,
          122,
          123,
          124,
          125,
          126,
          127,
          128,
          129,
          130,
          131,
          132,
          133,
          134,
          135,
          136,
          137,
          138,
          139,
          140,
          141,
          142,
          143,
          144,
          145,
          146,
          147,
          148,
          149,
          150,
          151,
          152,
          153,
          154,
          155,
          156,
          157,
          158,
          159,
          160,
          161,
          162,
          163,
          164
        ],
        "WindowCenter": [
          1221.0,
          1218.0,
          1218.0,
          1218.0,
          1216.0,
          1216.0,
          1216.0,
          1216.0,
          1216.0,
          1216.0,
          1216.0,
          1217.0,
          1219.0,
          1219.0,
          1216.0,
          1216.0,
          1217.0,
          1219.0,
          1219.0,
          1218.0,
          1219.0,
          1219.0,
          1219.0,
          1219.0,
          1220.0,
          1220.0,
          1219.0,
          1219.0,
          1219.0,
          1219.0,
          1218.0,
          1217.0,
          1221.0,
          1223.0,
          1222.0,
          1220.0,
          1220.0,
          1221.0,
          1221.0,
          1221.0,
          1220.0,
          1223.0,
          1222.0,
          1222.0,
          1222.0,
          1220.0,
          1220.0,
          1220.0,
          1220.0,
          1220.0,
          1218.0,
          1220.0,
          1220.0,
          1217.0,
          1218.0,
          1219.0,
          1218.0,
          1219.0,
          1220.0,
          1217.0,
          1215.0,
          1218.0,
          1220.0,
          1221.0,
          1220.0,
          1219.0,
          1219.0,
          1218.0,
          1218.0,
          1217.0,
          1219.0,
          1220.0,
          1220.0,
          1216.0,
          1216.0,
          1217.0,
          1216.0,
          1214.0,
          1218.0,
          1219.0,
          1216.0,
          1214.0,
          1209.0,
          1206.0,
          1207.0,
          1209.0,
          1212.0,
          1214.0,
          1215.0,
          1216.0,
          1211.0,
          1225.0,
          1225.0,
          1222.0,
          1216.0,
          1212.0,
          1217.0,
          1219.0,
          1221.0,
          1221.0,
          1220.0,
          1221.0,
          1222.0,
          1223.0,
          1224.0,
          1224.0,
          1223.0,
          1225.0,
          1225.0,
          1224.0,
          1223.0,
          1222.0,
          1223.0,
          1223.0,
          1224.0,
          1222.0,
          1221.0,
          1221.0,
          1220.0,
          1218.0,
          1219.0,
          1219.0,
          1218.0,
          1217.0,
          1218.0,
          1219.0,
          1218.0,
          1217.0,
          1216.0,
          1216.0,
          1218.0,
          1219.0,
          1221.0,
          1220.0,
          1220.0,
          1218.0,
          1219.0,
          1221.0,
          1224.0,
          1224.0,
          1222.0,
          1222.0,
          1223.0,
          1221.0,
          1220.0,
          1220.0,
          1220.0,
          1222.0,
          1223.0,
          1223.0,
          1221.0,
          1221.0,
          1220.0,
          1220.0,
          1220.0,
          1221.0,
          1220.0,
          1222.0,
          1221.0,
          1219.0,
          1219.0,
          1219.0,
          1218.0,
          1216.0
        ],
        "WindowWidth": [
          2920.0,
          2910.0,
          2910.0,
          2908.0,
          2906.0,
          2904.0,
          2902.0,
          2907.0,
          2908.0,
          2905.0,
          2906.0,
          2910.0,
          2914.0,
          2910.0,
          2906.0,
          2905.0,
          2909.0,
          2915.0,
          2914.0,
          2910.0,
          2912.0,
          2914.0,
          2915.0,
          2914.0,
          2915.0,
          2914.0,
          2913.0,
          2915.0,
          2916.0,
          2914.0,
          2911.0,
          2909.0,
          2915.0,
          2921.0,
          2918.0,
          2912.0,
          2911.0,
          2916.0,
          2917.0,
          2918.0,
          2918.0,
          2919.0,
          2919.0,
          2920.0,
          2920.0,
          2916.0,
          2915.0,
          2918.0,
          2915.0,
          2912.0,
          2911.0,
          2915.0,
          2912.0,
          2910.0,
          2912.0,
          2910.0,
          2910.0,
          2912.0,
          2915.0,
          2909.0,
          2905.0,
          2912.0,
          2915.0,
          2915.0,
          2913.0,
          2913.0,
          2914.0,
          2912.0,
          2914.0,
          2910.0,
          2918.0,
          2921.0,
          2913.0,
          2906.0,
          2905.0,
          2908.0,
          2909.0,
          2907.0,
          2917.0,
          2916.0,
          2907.0,
          2897.0,
          2885.0,
          2879.0,
          2883.0,
          2889.0,
          2897.0,
          2899.0,
          2903.0,
          2904.0,
          2903.0,
          2925.0,
          2930.0,
          2917.0,
          2903.0,
          2896.0,
          2909.0,
          2916.0,
          2919.0,
          2917.0,
          2917.0,
          2920.0,
          2922.0,
          2926.0,
          2925.0,
          2922.0,
          2925.0,
          2925.0,
          2928.0,
          2924.0,
          2924.0,
          2923.0,
          2926.0,
          2928.0,
          2923.0,
          2918.0,
          2916.0,
          2917.0,
          2916.0,
          2912.0,
          2911.0,
          2913.0,
          2910.0,
          2911.0,
          2912.0,
          2915.0,
          2911.0,
          2910.0,
          2908.0,
