{
  "aor": 0.002945365853658537,
  "aqi": 0.005383409207317073,
  "bids_meta": {
    "AcquisitionMatrixPE": 96,
    "AcquisitionNumber": 1,
    "AcquisitionTime": "18:35:4.567500",
    "BandwidthPerPixelPhaseEncode": 52.083,
    "BaseResolution": 96,
    "BodyPartExamined": "HEAD",
    "ConversionSoftware": "dcm2niix",
    "ConversionSoftwareVersion": "v1.0.20180622 GCC6.3.0",
    "DerivedVendorReportedEchoSpacing": 0.000600004,
    "DeviceSerialNumber": "18926",
    "DwellTime": 2.6e-06,
    "EchoTime": 0.025,
    "EffectiveEchoSpacing": 0.000200001,
    "FlipAngle": 50,
    "ImageOrientationPatientDICOM": [
      0.999992,
      0.00107587,
      0.0039606,
      2.16778e-10,
      0.965029,
      -0.262144
    ],
    "ImageType": [
      "ORIGINAL",
      "PRIMARY",
      "M",
      "ND",
      "ECHO",
      "00",
      "MOSAIC"
    ],
    "InPlanePhaseEncodingDirectionDICOM": "ROW",
    "InstitutionName": "NIMH",
    "InstitutionalDepartmentName": "Department",
    "MRAcquisitionType": "2D",
    "MagneticFieldStrength": 6.98,
    "Manufacturer": "Siemens",
    "ManufacturersModelName": "Investigational_Device_7T",
    "Modality": "MR",
    "ParallelReductionFactorInPlane": 3,
    "PartialFourier": 1,
    "PatientPosition": "HFS",
    "PercentPhaseFOV": 100,
    "PhaseEncodingDirection": "i",
    "PhaseEncodingSteps": 94,
    "PhaseResolution": 1,
    "PixelBandwidth": 2003,
    "ProcedureStepDescription": "UserProtocols_gonzalez",
    "ProtocolName": "NIH_EPI_2.0iso_TR2_Run01",
    "PulseSequenceDetails": "%CustomerSeq%_inati_nih_epi",
    "ReceiveCoilName": "32Ch_Head_7T",
    "ReconMatrixPE": 96,
    "RepetitionTime": 2,
    "SAR": 0.0759966,
    "ScanningSequence": "EP",
    "SequenceName": "epfid2d1_96",
    "SequenceVariant": "SK",
    "SeriesDescription": "NIH_EPI_2.0iso_TR2_Run01",
    "SeriesNumber": 5,
    "ShimSetting": [
      -84,
      226,
      870,
      988,
      -135,
      780,
      -134,
      -388
    ],
    "SliceThickness": 2,
    "SliceTiming": [
      1.0025,
      0,
      1.04,
      0.0375,
      1.0775,
      0.075,
      1.115,
      0.11,
      1.1525,
      0.1475,
      1.19,
      0.185,
      1.2275,
      0.2225,
      1.2625,
      0.26,
      1.3,
      0.2975,
      1.3375,
      0.335,
      1.375,
      0.3725,
      1.4125,
      0.4075,
      1.45,
      0.445,
      1.4875,
      0.4825,
      1.525,
      0.52,
      1.56,
      0.5575,
      1.5975,
      0.595,
      1.635,
      0.6325,
      1.6725,
      0.67,
      1.71,
      0.705,
      1.7475,
      0.7425,
      1.785,
      0.78,
      1.8225,
      0.8175,
      1.8575,
      0.855,
      1.895,
      0.8925,
      1.9325,
      0.93,
      1.97,
      0.9675
    ],
    "SoftwareVersions": "syngo_MR_B17",
    "SpacingBetweenSlices": 2,
    "StationName": "FMRIFD7T",
    "TaskName": "HalfFovNoTask",
    "TotalReadoutTime": 0.0190001,
    "TxRefAmp": 312,
    "dataset": "ds001555",
    "dcmmeta_affine": [
      [
        -1.9999831914901733,
        4.3355619094853637e-10,
        0.008208254352211952,
        95.76705169677734
      ],
      [
        -0.002151742111891508,
        1.9300576448440552,
        -0.5242831110954285,
        -47.04811477661133
      ],
      [
        0.00792120210826397,
        0.5242875218391418,
        1.9300414323806763,
        -53.087623596191406
      ],
      [
        0.0,
        0.0,
        0.0,
        1.0
      ]
    ],
    "dcmmeta_reorient_transform": [
      [
        0.0,
        -1.0,
        0.0,
        95.0
      ],
      [
        1.0,
        0.0,
        0.0,
        0.0
      ],
      [
        0.0,
        0.0,
        1.0,
        0.0
      ],
      [
        0.0,
        0.0,
        0.0,
        1.0
      ]
    ],
    "dcmmeta_shape": [
      96,
      96,
      54,
      164
    ],
    "dcmmeta_slice_dim": 2,
    "dcmmeta_version": 0.6,
    "global": {
      "const": {
        "AcquisitionMatrix": [
          0,
          96,
          96,
          0
        ],
        "AngioFlag": "N",
        "BitsAllocated": 16,
        "BitsStored": 12,
        "BodyPartExamined": "HEAD",
        "Columns": 768,
        "EchoNumbers": 1,
        "EchoTime": 25.0,
        "EchoTrainLength": 1,
        "FlipAngle": 50.0,
        "HighBit": 11,
        "ImageOrientationPatient": [
          0.99999157803541,
          0.00107587108734,
          0.00396060092,
          2.167781e-10,
          0.96502883202267,
          -0.2621437646883
        ],
        "ImagePositionPatient": [
          -767.7613927785,
          -785.52972561764,
          170.21877850821
        ],
        "ImageType": [
          "ORIGINAL",
          "PRIMARY",
          "M",
          "ND",
          "ECHO_00",
          "MOSAIC"
        ],
        "ImagedNucleus": "1H",
        "ImagingFrequency": 297.20482,
        "InPlanePhaseEncodingDirection": "ROW",
        "LargestImagePixelValue": 4095,
        "MRAcquisitionType": "2D",
        "MagneticFieldStrength": 6.98,
        "Manufacturer": "SIEMENS",
        "ManufacturerModelName": "Investigational_Device_7T",
        "Modality": "MR",
        "NumberOfAverages": 1.0,
        "NumberOfPhaseEncodingSteps": 94,
        "PercentPhaseFieldOfView": 100.0,
        "PercentSampling": 100.0,
        "PerformedProcedureStepStartTime": "180945.046000",
        "PhotometricInterpretation": "MONOCHROME2",
        "PixelBandwidth": 2003.0,
        "PixelRepresentation": 0,
        "PixelSpacing": [
          2.0,
          2.0
        ],
        "PositionReferenceIndicator": "",
        "ProtocolName": "NIH_EPI_2.0iso_TR2_Run01",
        "RepetitionTime": 2000.0,
        "Rows": 768,
        "SAR": 0.07599660351215,
        "SamplesPerPixel": 1,
        "ScanningSequence": "EP",
        "SequenceName": "epfid2d1_96",
        "SequenceVariant": "SK",
        "SeriesDescription": "NIH_EPI_2.0iso_TR2_Run01",
        "SeriesNumber": 5,
        "SliceLocation": -38.50434946979,
        "SliceThickness": 2.0,
        "SmallestImagePixelValue": 0,
        "SoftwareVersions": "syngo MR B17",
        "SpacingBetweenSlices": 1.9999999913969,
        "TransmitCoilName": "32Ch_Head_7T",
        "VariableFlipAngleFlag": "N",
        "WindowCenterWidthExplanation": "Algo1",
        "dBdt": 0.0
      },
      "slices": {}
    },
    "modality": "bold",
    "run_id": 2,
    "session_id": "08",
    "subject_id": "001",
    "task_id": "HalfFovNoTask",
    "time": {
      "samples": {
        "AcquisitionNumber": [
          1,
          2,
          3,
          4,
          5,
          6,
          7,
          8,
          9,
          10,
          11,
          12,
          13,
          14,
          15,
          16,
          17,
          18,
          19,
          20,
          21,
          22,
          23,
          24,
          25,
          26,
          27,
          28,
          29,
          30,
          31,
          32,
          33,
          34,
          35,
          36,
          37,
          38,
          39,
          40,
          41,
          42,
          43,
          44,
          45,
          46,
          47,
          48,
          49,
          50,
          51,
          52,
          53,
          54,
          55,
          56,
          57,
          58,
          59,
          60,
          61,
          62,
          63,
          64,
          65,
          66,
          67,
          68,
          69,
          70,
          71,
          72,
          73,
          74,
          75,
          76,
          77,
          78,
          79,
          80,
          81,
          82,
          83,
          84,
          85,
          86,
          87,
          88,
          89,
          90,
          91,
          92,
          93,
          94,
          95,
          96,
          97,
          98,
          99,
          100,
          101,
          102,
          103,
          104,
          105,
          106,
          107,
          108,
          109,
          110,
          111,
          112,
          113,
          114,
          115,
          116,
          117,
          118,
          119,
          120,
          121,
          122,
          123,
          124,
          125,
          126,
          127,
          128,
          129,
          130,
          131,
          132,
          133,
          134,
          135,
          136,
          137,
          138,
          139,
          140,
          141,
          142,
          143,
          144,
          145,
          146,
          147,
          148,
          149,
          150,
          151,
          152,
          153,
          154,
          155,
          156,
          157,
          158,
          159,
          160,
          161,
          162,
          163,
          164
        ],
        "AcquisitionTime": [
          "183504.567500",
          "183508.585000",
          "183510.592500",
          "183512.600000",
          "183514.607500",
          "183516.617500",
          "183518.625000",
          "183520.632500",
          "183522.640000",
          "183524.650000",
          "183526.657500",
          "183528.665000",
          "183530.672500",
          "183532.680000",
          "183534.690000",
          "183536.697500",
          "183538.705000",
          "183540.712500",
          "183542.720000",
          "183544.730000",
          "183546.737500",
          "183548.745000",
          "183550.752500",
          "183552.762500",
          "183554.770000",
          "183556.777500",
          "183558.785000",
          "183600.792500",
          "183602.802500",
          "183604.810000",
          "183606.817500",
          "183608.825000",
          "183610.832500",
          "183612.842500",
          "183614.850000",
          "183616.857500",
          "183618.865000",
          "183620.872500",
          "183622.882500",
          "183624.890000",
          "183626.897500",
          "183628.905000",
          "183630.915000",
          "183632.922500",
          "183634.930000",
          "183636.937500",
          "183638.945000",
          "183640.955000",
          "183642.962500",
          "183644.970000",
          "183646.977500",
          "183648.985000",
          "183650.995000",
          "183653.002500",
          "183655.010000",
          "183657.017500",
          "183659.027500",
          "183701.035000",
          "183703.042500",
          "183705.050000",
          "183707.057500",
          "183709.067500",
          "183711.075000",
          "183713.082500",
          "183715.090000",
          "183717.097500",
          "183719.107500",
          "183721.115000",
          "183723.122500",
          "183725.130000",
          "183727.140000",
          "183729.147500",
          "183731.155000",
          "183733.162500",
          "183735.170000",
          "183737.180000",
          "183739.187500",
          "183741.195000",
          "183743.202500",
          "183745.210000",
          "183747.220000",
          "183749.227500",
          "183751.235000",
          "183753.242500",
          "183755.250000",
          "183757.260000",
          "183759.267500",
          "183801.275000",
          "183803.282500",
          "183805.292500",
          "183807.300000",
          "183809.307500",
          "183811.315000",
          "183813.322500",
          "183815.332500",
          "183817.340000",
          "183819.347500",
          "183821.355000",
          "183823.362500",
          "183825.372500",
          "183827.380000",
          "183829.387500",
          "183831.395000",
          "183833.405000",
          "183835.412500",
          "183837.420000",
          "183839.427500",
          "183841.435000",
          "183843.445000",
          "183845.452500",
          "183847.460000",
          "183849.467500",
          "183851.475000",
          "183853.485000",
          "183855.492500",
          "183857.500000",
          "183859.507500",
          "183901.517500",
          "183903.525000",
          "183905.532500",
          "183907.540000",
          "183909.547500",
          "183911.557500",
          "183913.565000",
          "183915.572500",
          "183917.580000",
          "183919.587500",
          "183921.597500",
          "183923.605000",
          "183925.612500",
          "183927.620000",
          "183929.627500",
          "183931.637500",
          "183933.645000",
          "183935.652500",
          "183937.660000",
          "183939.670000",
          "183941.677500",
          "183943.685000",
          "183945.692500",
          "183947.700000",
          "183949.710000",
          "183951.717500",
          "183953.725000",
          "183955.732500",
          "183957.740000",
          "183959.750000",
          "184001.757500",
          "184003.765000",
          "184005.772500",
          "184007.782500",
          "184009.790000",
          "184011.797500",
          "184013.805000",
          "184015.812500",
          "184017.822500",
          "184019.830000",
          "184021.837500",
          "184023.845000",
          "184025.852500",
          "184027.862500",
          "184029.870000",
          "184031.877500",
          "184033.885000"
        ],
        "ContentTime": [
          "183557.312000",
          "183557.328000",
          "183557.328000",
          "183557.328000",
          "183557.328000",
          "183557.328000",
          "183557.328000",
          "183557.328000",
          "183557.343000",
          "183557.343000",
          "183557.343000",
          "183557.343000",
          "183557.343000",
          "183557.343000",
          "183557.343000",
          "183557.359000",
          "183557.359000",
          "183557.359000",
          "183557.359000",
          "183557.375000",
          "183557.375000",
          "183557.375000",
          "183557.375000",
          "183557.375000",
          "183557.375000",
          "183637.296000",
          "183637.296000",
          "183637.296000",
          "183637.312000",
          "183637.312000",
          "183637.312000",
          "183637.312000",
          "183637.312000",
          "183637.312000",
          "183637.328000",
          "183637.328000",
          "183637.328000",
          "183637.328000",
          "183637.343000",
          "183637.343000",
          "183637.343000",
          "183637.343000",
          "183637.343000",
          "183637.343000",
          "183637.359000",
          "183717.296000",
          "183717.296000",
          "183717.296000",
          "183717.296000",
          "183717.312000",
          "183717.312000",
          "183717.312000",
          "183717.328000",
          "183717.328000",
          "183717.328000",
          "183717.328000",
          "183717.328000",
          "183717.343000",
          "183717.343000",
          "183717.343000",
          "183717.343000",
          "183717.343000",
          "183717.359000",
          "183717.359000",
          "183717.359000",
          "183757.296000",
          "183757.296000",
          "183757.296000",
          "183757.312000",
          "183757.312000",
          "183757.312000",
          "183757.312000",
          "183757.312000",
          "183757.312000",
          "183757.312000",
          "183757.328000",
          "183757.328000",
          "183757.328000",
          "183757.328000",
          "183757.328000",
          "183757.328000",
          "183757.328000",
          "183757.343000",
          "183757.343000",
          "183757.343000",
          "183837.296000",
          "183837.296000",
          "183837.312000",
          "183837.312000",
          "183837.312000",
          "183837.312000",
          "183837.328000",
          "183837.328000",
          "183837.328000",
          "183837.328000",
          "183837.328000",
          "183837.328000",
          "183837.343000",
          "183837.343000",
          "183837.343000",
          "183837.343000",
          "183837.343000",
          "183837.343000",
          "183837.343000",
          "183837.359000",
          "183917.296000",
          "183917.296000",
          "183917.296000",
          "183917.312000",
          "183917.312000",
          "183917.312000",
          "183917.312000",
          "183917.312000",
          "183917.312000",
          "183917.328000",
          "183917.328000",
          "183917.328000",
          "183917.328000",
          "183917.343000",
          "183917.343000",
          "183917.343000",
          "183917.343000",
          "183917.343000",
          "183917.343000",
          "183917.359000",
          "183957.296000",
          "183957.296000",
          "183957.296000",
          "183957.312000",
          "183957.312000",
          "183957.312000",
          "183957.312000",
          "183957.312000",
          "183957.312000",
          "183957.312000",
          "183957.328000",
          "183957.328000",
          "183957.328000",
          "183957.328000",
          "183957.328000",
          "183957.328000",
          "183957.328000",
          "183957.343000",
          "183957.343000",
          "183957.343000",
          "184034.156000",
          "184034.171000",
          "184034.187000",
          "184034.187000",
          "184034.187000",
          "184034.187000",
          "184034.187000",
          "184034.187000",
          "184034.187000",
          "184034.203000",
          "184034.203000",
          "184034.203000",
          "184034.203000",
          "184034.203000",
          "184034.218000",
          "184034.218000",
          "184034.218000",
          "184034.218000",
          "184034.218000"
        ],
        "InstanceCreationTime": [
          "183557.312000",
          "183557.328000",
          "183557.328000",
          "183557.328000",
          "183557.328000",
          "183557.328000",
          "183557.328000",
          "183557.328000",
          "183557.343000",
          "183557.343000",
          "183557.343000",
          "183557.343000",
          "183557.343000",
          "183557.343000",
          "183557.343000",
          "183557.359000",
          "183557.359000",
          "183557.359000",
          "183557.359000",
          "183557.375000",
          "183557.375000",
          "183557.375000",
          "183557.375000",
          "183557.375000",
          "183557.375000",
          "183637.296000",
          "183637.296000",
          "183637.296000",
          "183637.312000",
          "183637.312000",
          "183637.312000",
          "183637.312000",
          "183637.312000",
          "183637.312000",
          "183637.328000",
          "183637.328000",
          "183637.328000",
          "183637.328000",
          "183637.343000",
          "183637.343000",
          "183637.343000",
          "183637.343000",
          "183637.343000",
          "183637.343000",
          "183637.359000",
          "183717.296000",
          "183717.296000",
          "183717.296000",
          "183717.296000",
          "183717.312000",
          "183717.312000",
          "183717.312000",
          "183717.328000",
          "183717.328000",
          "183717.328000",
          "183717.328000",
          "183717.328000",
          "183717.343000",
          "183717.343000",
          "183717.343000",
          "183717.343000",
          "183717.343000",
          "183717.359000",
          "183717.359000",
          "183717.359000",
          "183757.296000",
          "183757.296000",
          "183757.296000",
          "183757.312000",
          "183757.312000",
          "183757.312000",
          "183757.312000",
          "183757.312000",
          "183757.312000",
          "183757.312000",
          "183757.328000",
          "183757.328000",
          "183757.328000",
          "183757.328000",
          "183757.328000",
          "183757.328000",
          "183757.328000",
          "183757.343000",
          "183757.343000",
          "183757.343000",
          "183837.296000",
          "183837.296000",
          "183837.312000",
          "183837.312000",
          "183837.312000",
          "183837.312000",
          "183837.328000",
          "183837.328000",
          "183837.328000",
          "183837.328000",
          "183837.328000",
          "183837.328000",
          "183837.343000",
          "183837.343000",
          "183837.343000",
          "183837.343000",
          "183837.343000",
          "183837.343000",
          "183837.343000",
          "183837.359000",
          "183917.296000",
          "183917.296000",
          "183917.296000",
          "183917.312000",
          "183917.312000",
          "183917.312000",
          "183917.312000",
          "183917.312000",
          "183917.312000",
          "183917.328000",
          "183917.328000",
          "183917.328000",
          "183917.328000",
          "183917.343000",
          "183917.343000",
          "183917.343000",
          "183917.343000",
          "183917.343000",
          "183917.343000",
          "183917.359000",
          "183957.296000",
          "183957.296000",
          "183957.296000",
          "183957.312000",
          "183957.312000",
          "183957.312000",
          "183957.312000",
          "183957.312000",
          "183957.312000",
          "183957.312000",
          "183957.328000",
          "183957.328000",
          "183957.328000",
          "183957.328000",
          "183957.328000",
          "183957.328000",
          "183957.328000",
          "183957.343000",
          "183957.343000",
          "183957.343000",
          "184034.156000",
          "184034.171000",
          "184034.187000",
          "184034.187000",
          "184034.187000",
          "184034.187000",
          "184034.187000",
          "184034.187000",
          "184034.187000",
          "184034.203000",
          "184034.203000",
          "184034.203000",
          "184034.203000",
          "184034.203000",
          "184034.218000",
          "184034.218000",
          "184034.218000",
          "184034.218000",
          "184034.218000"
        ],
        "InstanceNumber": [
          1,
          2,
          3,
          4,
          5,
          6,
          7,
          8,
          9,
          10,
          11,
          12,
          13,
          14,
          15,
          16,
          17,
          18,
          19,
          20,
          21,
          22,
          23,
          24,
          25,
          26,
          27,
          28,
          29,
          30,
          31,
          32,
          33,
          34,
          35,
          36,
          37,
          38,
          39,
          40,
          41,
          42,
          43,
          44,
          45,
          46,
          47,
          48,
          49,
          50,
          51,
          52,
          53,
          54,
          55,
          56,
          57,
          58,
          59,
          60,
          61,
          62,
          63,
          64,
          65,
          66,
          67,
          68,
          69,
          70,
          71,
          72,
          73,
          74,
          75,
          76,
          77,
          78,
          79,
          80,
          81,
          82,
          83,
          84,
          85,
          86,
          87,
          88,
          89,
          90,
          91,
          92,
          93,
          94,
          95,
          96,
          97,
          98,
          99,
          100,
          101,
          102,
          103,
          104,
          105,
          106,
          107,
          108,
          109,
          110,
          111,
          112,
          113,
          114,
          115,
          116,
          117,
          118,
          119,
          120,
          121,
          122,
          123,
          124,
          125,
          126,
          127,
          128,
          129,
          130,
          131,
          132,
          133,
          134,
          135,
          136,
          137,
          138,
          139,
          140,
          141,
          142,
          143,
          144,
          145,
          146,
          147,
          148,
          149,
          150,
          151,
          152,
          153,
          154,
          155,
          156,
          157,
          158,
          159,
          160,
          161,
          162,
          163,
          164
        ],
        "WindowCenter": [
          1209.0,
          1210.0,
          1212.0,
          1212.0,
          1210.0,
          1209.0,
          1208.0,
          1208.0,
          1207.0,
          1209.0,
          1210.0,
          1212.0,
          1212.0,
          1209.0,
          1210.0,
          1210.0,
          1210.0,
          1211.0,
          1211.0,
          1213.0,
          1214.0,
          1213.0,
          1212.0,
          1211.0,
          1211.0,
          1211.0,
          1211.0,
          1210.0,
          1210.0,
          1209.0,
          1209.0,
          1210.0,
          1208.0,
          1207.0,
          1205.0,
          1207.0,
          1209.0,
          1208.0,
          1208.0,
          1208.0,
          1212.0,
          1212.0,
          1210.0,
          1209.0,
          1209.0,
          1210.0,
          1211.0,
          1212.0,
          1211.0,
          1210.0,
          1211.0,
          1211.0,
          1212.0,
          1211.0,
          1213.0,
          1212.0,
          1211.0,
          1211.0,
          1213.0,
          1211.0,
          1210.0,
          1210.0,
          1207.0,
          1206.0,
          1207.0,
          1205.0,
          1201.0,
          1200.0,
          1201.0,
          1203.0,
          1205.0,
          1207.0,
          1210.0,
          1214.0,
          1215.0,
          1215.0,
          1215.0,
          1215.0,
          1217.0,
          1216.0,
          1216.0,
          1215.0,
          1215.0,
          1214.0,
          1214.0,
          1212.0,
          1210.0,
          1209.0,
          1210.0,
          1209.0,
          1210.0,
          1209.0,
          1209.0,
          1210.0,
          1210.0,
          1210.0,
          1210.0,
          1211.0,
          1212.0,
          1212.0,
          1211.0,
          1211.0,
          1209.0,
          1212.0,
          1210.0,
          1209.0,
          1209.0,
          1209.0,
          1209.0,
          1211.0,
          1210.0,
          1209.0,
          1211.0,
          1213.0,
          1215.0,
          1214.0,
          1213.0,
          1214.0,
          1215.0,
          1216.0,
          1214.0,
          1214.0,
          1212.0,
          1212.0,
          1211.0,
          1211.0,
          1212.0,
          1211.0,
          1211.0,
          1210.0,
          1208.0,
          1209.0,
          1210.0,
          1211.0,
          1212.0,
          1212.0,
          1212.0,
          1212.0,
          1210.0,
          1211.0,
          1212.0,
          1212.0,
          1214.0,
          1210.0,
          1208.0,
          1209.0,
          1209.0,
          1208.0,
          1206.0,
          1206.0,
          1208.0,
          1208.0,
          1208.0,
          1209.0,
          1209.0,
          1208.0,
          1209.0,
          1208.0,
          1209.0,
          1209.0,
          1209.0,
          1206.0,
          1214.0,
          1216.0
        ],
        "WindowWidth": [
          2899.0,
          2905.0,
          2911.0,
          2910.0,
          2905.0,
          2902.0,
          2899.0,
          2900.0,
          2900.0,
          2905.0,
          2907.0,
          2909.0,
          2905.0,
          2902.0,
          2905.0,
          2905.0,
          2904.0,
          2906.0,
          2909.0,
          2915.0,
          2916.0,
          2911.0,
          2909.0,
          2906.0,
          2906.0,
          2908.0,
          2907.0,
          2904.0,
          2902.0,
          2899.0,
          2901.0,
          2903.0,
          2898.0,
          2895.0,
          2893.0,
          2898.0,
          2900.0,
          2896.0,
          2897.0,
          2901.0,
          2907.0,
          2908.0,
          2903.0,
          2900.0,
          2897.0,
          2901.0,
          2905.0,
          2906.0,
          2905.0,
          2901.0,
          2904.0,
          2904.0,
          2907.0,
          2909.0,
          2911.0,
          2908.0,
          2903.0,
          2908.0,
          2915.0,
          2908.0,
          2908.0,
          2906.0,
          2895.0,
          2893.0,
          2894.0,
          2884.0,
          2879.0,
          2878.0,
          2882.0,
          2885.0,
          2890.0,
          2898.0,
          2904.0,
          2914.0,
          2914.0,
          2914.0,
          2918.0,
          2918.0,
          2921.0,
          2922.0,
          2918.0,
          2916.0,
          2916.0,
          2914.0,
          2912.0,
          2907.0,
          2902.0,
          2904.0,
          2902.0,
          2902.0,
          2904.0,
          2902.0,
          2901.0,
          2903.0,
          2902.0,
          2902.0,
          2903.0,
          2907.0,
          2909.0,
          2904.0,
          2906.0,
          2903.0,
          2903.0,
          2909.0,
          2903.0,
          2901.0,
          2897.0,
          2898.0,
          2901.0,
          2903.0,
          2901.0,
          2900.0,
          2906.0,
          2912.0,
          2916.0,
          2914.0,
          2914.0,
          2916.0,
          2918.0,
          2921.0,
          2915.0,
          2914.0,
          2910.0,
          2911.0,
          2911.0,
          2909.0,
          2911.0,
          2911.0,
          2909.0,
