{
  "aor": 0.001475670731707317,
  "aqi": 0.004400663414634146,
  "bids_meta": {
    "AcquisitionMatrixPE": 96,
    "AcquisitionNumber": 1,
    "AcquisitionTime": "14:06:14.682500",
    "BandwidthPerPixelPhaseEncode": 52.083,
    "BaseResolution": 96,
    "BodyPartExamined": "HEAD",
    "ConversionSoftware": "dcm2niix",
    "ConversionSoftwareVersion": "v1.0.20180622 GCC6.3.0",
    "DerivedVendorReportedEchoSpacing": 0.000600004,
    "DeviceSerialNumber": "18926",
    "DwellTime": 2.6e-06,
    "EchoTime": 0.025,
    "EffectiveEchoSpacing": 0.000200001,
    "FlipAngle": 50,
    "ImageOrientationPatientDICOM": [
      0.999992,
      0.00067012,
      0.00404905,
      2.11009e-10,
      0.98658,
      -0.16328
    ],
    "ImageType": [
      "ORIGINAL",
      "PRIMARY",
      "M",
      "ND",
      "ECHO",
      "00",
      "MOSAIC"
    ],
    "InPlanePhaseEncodingDirectionDICOM": "ROW",
    "InstitutionName": "NIMH",
    "InstitutionalDepartmentName": "Department",
    "MRAcquisitionType": "2D",
    "MagneticFieldStrength": 6.98,
    "Manufacturer": "Siemens",
    "ManufacturersModelName": "Investigational_Device_7T",
    "Modality": "MR",
    "ParallelReductionFactorInPlane": 3,
    "PartialFourier": 1,
    "PatientPosition": "HFS",
    "PercentPhaseFOV": 100,
    "PhaseEncodingDirection": "i",
    "PhaseEncodingSteps": 94,
    "PhaseResolution": 1,
    "PixelBandwidth": 2003,
    "ProcedureStepDescription": "UserProtocols_gonzalez",
    "ProtocolName": "NIH_EPI_2.0iso_TR2_Run08",
    "PulseSequenceDetails": "%CustomerSeq%_inati_nih_epi",
    "ReceiveCoilName": "32Ch_Head_7T",
    "ReconMatrixPE": 96,
    "RepetitionTime": 2,
    "SAR": 0.0803487,
    "ScanningSequence": "EP",
    "SequenceName": "epfid2d1_96",
    "SequenceVariant": "SK",
    "SeriesDescription": "NIH_EPI_2.0iso_TR2_Run08",
    "SeriesNumber": 12,
    "ShimSetting": [
      -83,
      276,
      1233,
      1967,
      -35,
      518,
      401,
      -253
    ],
    "SliceThickness": 2,
    "SliceTiming": [
      1.005,
      0,
      1.0425,
      0.0375,
      1.0775,
      0.075,
      1.115,
      0.1125,
      1.1525,
      0.15,
      1.19,
      0.1875,
      1.2275,
      0.2225,
      1.265,
      0.26,
      1.3025,
      0.2975,
      1.34,
      0.335,
      1.375,
      0.3725,
      1.4125,
      0.41,
      1.45,
      0.4475,
      1.4875,
      0.485,
      1.525,
      0.52,
      1.5625,
      0.5575,
      1.6,
      0.595,
      1.6375,
      0.6325,
      1.6725,
      0.67,
      1.71,
      0.7075,
      1.7475,
      0.745,
      1.785,
      0.78,
      1.8225,
      0.8175,
      1.86,
      0.855,
      1.8975,
      0.8925,
      1.935,
      0.93,
      1.97,
      0.9675
    ],
    "SoftwareVersions": "syngo_MR_B17",
    "SpacingBetweenSlices": 2,
    "StationName": "FMRIFD7T",
    "TaskName": "FullFovNoAttentionTask",
    "TotalReadoutTime": 0.0190001,
    "TxRefAmp": 282,
    "dataset": "ds001555",
    "dcmmeta_affine": [
      [
        -1.9999831914901733,
        4.2201880878778297e-10,
        0.008208253420889378,
        95.76705169677734
      ],
      [
        -0.0013402394251897931,
        1.973159670829773,
        -0.32655632495880127,
        -64.46756744384766
      ],
      [
        0.008098097518086433,
        0.32655906677246094,
        1.9731431007385254,
        -46.29322052001953
      ],
      [
        0.0,
        0.0,
        0.0,
        1.0
      ]
    ],
    "dcmmeta_reorient_transform": [
      [
        0.0,
        -1.0,
        0.0,
        95.0
      ],
      [
        1.0,
        0.0,
        0.0,
        0.0
      ],
      [
        0.0,
        0.0,
        1.0,
        0.0
      ],
      [
        0.0,
        0.0,
        0.0,
        1.0
      ]
    ],
    "dcmmeta_shape": [
      96,
      96,
      54,
      164
    ],
    "dcmmeta_slice_dim": 2,
    "dcmmeta_version": 0.6,
    "global": {
      "const": {
        "AcquisitionMatrix": [
          0,
          96,
          96,
          0
        ],
        "AngioFlag": "N",
        "BitsAllocated": 16,
        "BitsStored": 12,
        "BodyPartExamined": "HEAD",
        "Columns": 768,
        "EchoNumbers": 1,
        "EchoTime": 25.0,
        "EchoTrainLength": 1,
        "FlipAngle": 50.0,
        "HighBit": 11,
        "ImageOrientationPatient": [
          0.99999157803662,
          0.00067011969073,
          0.00404904870684,
          2.110094e-10,
          0.98657984636313,
          -0.1632795356133
        ],
        "ImagePositionPatient": [
          -767.761392775,
          -786.41458365531,
          91.732777677076
        ],
        "ImageType": [
          "ORIGINAL",
          "PRIMARY",
          "M",
          "ND",
          "ECHO_00",
          "MOSAIC"
        ],
        "ImagedNucleus": "1H",
        "ImagingFrequency": 297.205105,
        "InPlanePhaseEncodingDirection": "ROW",
        "LargestImagePixelValue": 4095,
        "MRAcquisitionType": "2D",
        "MagneticFieldStrength": 6.98,
        "Manufacturer": "SIEMENS",
        "ManufacturerModelName": "Investigational_Device_7T",
        "Modality": "MR",
        "NumberOfAverages": 1.0,
        "NumberOfPhaseEncodingSteps": 94,
        "PercentPhaseFieldOfView": 100.0,
        "PercentSampling": 100.0,
        "PerformedProcedureStepStartTime": "125519.175000",
        "PhotometricInterpretation": "MONOCHROME2",
        "PixelBandwidth": 2003.0,
        "PixelRepresentation": 0,
        "PixelSpacing": [
          2.0,
          2.0
        ],
        "PositionReferenceIndicator": "",
        "ProtocolName": "NIH_EPI_2.0iso_TR2_Run08",
        "RepetitionTime": 2000.0,
        "Rows": 768,
        "SAR": 0.08034873613096,
        "SamplesPerPixel": 1,
        "ScanningSequence": "EP",
        "SequenceName": "epfid2d1_96",
        "SequenceVariant": "SK",
        "SeriesDescription": "NIH_EPI_2.0iso_TR2_Run08",
        "SeriesNumber": 12,
        "SliceLocation": -34.752389070505,
        "SliceThickness": 2.0,
        "SmallestImagePixelValue": 0,
        "SoftwareVersions": "syngo MR B17",
        "SpacingBetweenSlices": 2.0000000154846,
        "TransmitCoilName": "32Ch_Head_7T",
        "VariableFlipAngleFlag": "N",
        "WindowCenterWidthExplanation": "Algo1",
        "dBdt": 0.0
      },
      "slices": {}
    },
    "modality": "bold",
    "run_id": 9,
    "session_id": "03",
    "subject_id": "002",
    "task_id": "FullFovNoAttentionTask",
    "time": {
      "samples": {
        "AcquisitionNumber": [
          1,
          2,
          3,
          4,
          5,
          6,
          7,
          8,
          9,
          10,
          11,
          12,
          13,
          14,
          15,
          16,
          17,
          18,
          19,
          20,
          21,
          22,
          23,
          24,
          25,
          26,
          27,
          28,
          29,
          30,
          31,
          32,
          33,
          34,
          35,
          36,
          37,
          38,
          39,
          40,
          41,
          42,
          43,
          44,
          45,
          46,
          47,
          48,
          49,
          50,
          51,
          52,
          53,
          54,
          55,
          56,
          57,
          58,
          59,
          60,
          61,
          62,
          63,
          64,
          65,
          66,
          67,
          68,
          69,
          70,
          71,
          72,
          73,
          74,
          75,
          76,
          77,
          78,
          79,
          80,
          81,
          82,
          83,
          84,
          85,
          86,
          87,
          88,
          89,
          90,
          91,
          92,
          93,
          94,
          95,
          96,
          97,
          98,
          99,
          100,
          101,
          102,
          103,
          104,
          105,
          106,
          107,
          108,
          109,
          110,
          111,
          112,
          113,
          114,
          115,
          116,
          117,
          118,
          119,
          120,
          121,
          122,
          123,
          124,
          125,
          126,
          127,
          128,
          129,
          130,
          131,
          132,
          133,
          134,
          135,
          136,
          137,
          138,
          139,
          140,
          141,
          142,
          143,
          144,
          145,
          146,
          147,
          148,
          149,
          150,
          151,
          152,
          153,
          154,
          155,
          156,
          157,
          158,
          159,
          160,
          161,
          162,
          163,
          164
        ],
        "AcquisitionTime": [
          "140614.682500",
          "140618.697500",
          "140620.705000",
          "140622.715000",
          "140624.722500",
          "140626.730000",
          "140628.737500",
          "140630.745000",
          "140632.755000",
          "140634.762500",
          "140636.770000",
          "140638.777500",
          "140640.785000",
          "140642.795000",
          "140644.802500",
          "140646.810000",
          "140648.817500",
          "140650.827500",
          "140652.835000",
          "140654.842500",
          "140656.850000",
          "140658.857500",
          "140700.867500",
          "140702.875000",
          "140704.882500",
          "140706.890000",
          "140708.897500",
          "140710.907500",
          "140712.915000",
          "140714.922500",
          "140716.930000",
          "140718.940000",
          "140720.947500",
          "140722.955000",
          "140724.962500",
          "140726.970000",
          "140728.980000",
          "140730.987500",
          "140732.995000",
          "140735.002500",
          "140737.010000",
          "140739.020000",
          "140741.027500",
          "140743.035000",
          "140745.042500",
          "140747.052500",
          "140749.060000",
          "140751.067500",
          "140753.075000",
          "140755.082500",
          "140757.092500",
          "140759.100000",
          "140801.107500",
          "140803.115000",
          "140805.122500",
          "140807.132500",
          "140809.140000",
          "140811.147500",
          "140813.155000",
          "140815.162500",
          "140817.172500",
          "140819.180000",
          "140821.187500",
          "140823.195000",
          "140825.205000",
          "140827.212500",
          "140829.220000",
          "140831.227500",
          "140833.235000",
          "140835.245000",
          "140837.252500",
          "140839.260000",
          "140841.267500",
          "140843.275000",
          "140845.285000",
          "140847.292500",
          "140849.300000",
          "140851.307500",
          "140853.317500",
          "140855.325000",
          "140857.332500",
          "140859.340000",
          "140901.347500",
          "140903.357500",
          "140905.365000",
          "140907.372500",
          "140909.380000",
          "140911.387500",
          "140913.397500",
          "140915.405000",
          "140917.412500",
          "140919.420000",
          "140921.430000",
          "140923.437500",
          "140925.445000",
          "140927.452500",
          "140929.460000",
          "140931.470000",
          "140933.477500",
          "140935.485000",
          "140937.492500",
          "140939.500000",
          "140941.510000",
          "140943.517500",
          "140945.525000",
          "140947.532500",
          "140949.540000",
          "140951.550000",
          "140953.557500",
          "140955.565000",
          "140957.572500",
          "140959.582500",
          "141001.590000",
          "141003.597500",
          "141005.605000",
          "141007.612500",
          "141009.622500",
          "141011.630000",
          "141013.637500",
          "141015.645000",
          "141017.652500",
          "141019.662500",
          "141021.670000",
          "141023.677500",
          "141025.685000",
          "141027.695000",
          "141029.702500",
          "141031.710000",
          "141033.717500",
          "141035.725000",
          "141037.735000",
          "141039.742500",
          "141041.750000",
          "141043.757500",
          "141045.765000",
          "141047.775000",
          "141049.782500",
          "141051.790000",
          "141053.797500",
          "141055.807500",
          "141057.815000",
          "141059.822500",
          "141101.830000",
          "141103.837500",
          "141105.847500",
          "141107.855000",
          "141109.862500",
          "141111.870000",
          "141113.877500",
          "141115.887500",
          "141117.895000",
          "141119.902500",
          "141121.910000",
          "141123.917500",
          "141125.927500",
          "141127.935000",
          "141129.942500",
          "141131.950000",
          "141133.960000",
          "141135.967500",
          "141137.975000",
          "141139.982500",
          "141141.990000",
          "141144.000000"
        ],
        "ContentTime": [
          "140658.550000",
          "140658.550000",
          "140658.566000",
          "140658.566000",
          "140658.566000",
          "140658.566000",
          "140658.566000",
          "140658.566000",
          "140658.566000",
          "140658.582000",
          "140658.582000",
          "140658.582000",
          "140658.582000",
          "140658.582000",
          "140658.582000",
          "140658.597000",
          "140658.597000",
          "140658.613000",
          "140658.613000",
          "140658.613000",
          "140658.613000",
          "140738.550000",
          "140738.550000",
          "140738.550000",
          "140738.550000",
          "140738.550000",
          "140738.550000",
          "140738.566000",
          "140738.566000",
          "140738.566000",
          "140738.566000",
          "140738.566000",
          "140738.566000",
          "140738.566000",
          "140738.582000",
          "140738.582000",
          "140738.582000",
          "140738.582000",
          "140738.582000",
          "140738.582000",
          "140738.582000",
          "140818.550000",
          "140818.550000",
          "140818.550000",
          "140818.550000",
          "140818.550000",
          "140818.550000",
          "140818.550000",
          "140818.566000",
          "140818.566000",
          "140818.566000",
          "140818.566000",
          "140818.566000",
          "140818.566000",
          "140818.566000",
          "140818.582000",
          "140818.582000",
          "140818.582000",
          "140818.582000",
          "140818.582000",
          "140818.582000",
          "140858.550000",
          "140858.550000",
          "140858.550000",
          "140858.550000",
          "140858.550000",
          "140858.566000",
          "140858.566000",
          "140858.566000",
          "140858.566000",
          "140858.566000",
          "140858.566000",
          "140858.566000",
          "140858.582000",
          "140858.582000",
          "140858.582000",
          "140858.582000",
          "140858.582000",
          "140858.582000",
          "140858.597000",
          "140858.597000",
          "140938.550000",
          "140938.550000",
          "140938.550000",
          "140938.550000",
          "140938.566000",
          "140938.566000",
          "140938.566000",
          "140938.566000",
          "140938.582000",
          "140938.582000",
          "140938.582000",
          "140938.582000",
          "140938.582000",
          "140938.582000",
          "140938.597000",
          "140938.597000",
          "140938.597000",
          "140938.597000",
          "140938.597000",
          "140938.597000",
          "140958.535000",
          "140958.535000",
          "140958.550000",
          "140958.550000",
          "140958.550000",
          "140958.550000",
          "140958.550000",
          "140958.550000",
          "140958.550000",
          "140958.566000",
          "141038.535000",
          "141038.550000",
          "141038.550000",
          "141038.550000",
          "141038.550000",
          "141038.566000",
          "141038.566000",
          "141038.566000",
          "141038.582000",
          "141038.582000",
          "141038.582000",
          "141038.582000",
          "141038.582000",
          "141038.597000",
          "141038.597000",
          "141038.597000",
          "141038.597000",
          "141038.597000",
          "141038.597000",
          "141038.613000",
          "141118.535000",
          "141118.535000",
          "141118.535000",
          "141118.550000",
          "141118.550000",
          "141118.550000",
          "141118.550000",
          "141118.550000",
          "141118.566000",
          "141118.566000",
          "141118.566000",
          "141118.566000",
          "141118.582000",
          "141118.582000",
          "141118.582000",
          "141118.582000",
          "141118.582000",
          "141118.582000",
          "141118.582000",
          "141118.597000",
          "141144.441000",
          "141144.441000",
          "141144.441000",
          "141144.441000",
          "141144.457000",
          "141144.457000",
          "141144.457000",
          "141144.457000",
          "141144.457000",
          "141144.457000",
          "141144.472000",
          "141144.472000",
          "141144.472000"
        ],
        "InstanceCreationTime": [
          "140658.550000",
          "140658.550000",
          "140658.566000",
          "140658.566000",
          "140658.566000",
          "140658.566000",
          "140658.566000",
          "140658.566000",
          "140658.566000",
          "140658.582000",
          "140658.582000",
          "140658.582000",
          "140658.582000",
          "140658.582000",
          "140658.582000",
          "140658.597000",
          "140658.597000",
          "140658.613000",
          "140658.613000",
          "140658.613000",
          "140658.613000",
          "140738.550000",
          "140738.550000",
          "140738.550000",
          "140738.550000",
          "140738.550000",
          "140738.550000",
          "140738.566000",
          "140738.566000",
          "140738.566000",
          "140738.566000",
          "140738.566000",
          "140738.566000",
          "140738.566000",
          "140738.582000",
          "140738.582000",
          "140738.582000",
          "140738.582000",
          "140738.582000",
          "140738.582000",
          "140738.582000",
          "140818.550000",
          "140818.550000",
          "140818.550000",
          "140818.550000",
          "140818.550000",
          "140818.550000",
          "140818.550000",
          "140818.566000",
          "140818.566000",
          "140818.566000",
          "140818.566000",
          "140818.566000",
          "140818.566000",
          "140818.566000",
          "140818.582000",
          "140818.582000",
          "140818.582000",
          "140818.582000",
          "140818.582000",
          "140818.582000",
          "140858.550000",
          "140858.550000",
          "140858.550000",
          "140858.550000",
          "140858.550000",
          "140858.566000",
          "140858.566000",
          "140858.566000",
          "140858.566000",
          "140858.566000",
          "140858.566000",
          "140858.566000",
          "140858.582000",
          "140858.582000",
          "140858.582000",
          "140858.582000",
          "140858.582000",
          "140858.582000",
          "140858.597000",
          "140858.597000",
          "140938.550000",
          "140938.550000",
          "140938.550000",
          "140938.550000",
          "140938.566000",
          "140938.566000",
          "140938.566000",
          "140938.566000",
          "140938.582000",
          "140938.582000",
          "140938.582000",
          "140938.582000",
          "140938.582000",
          "140938.582000",
          "140938.597000",
          "140938.597000",
          "140938.597000",
          "140938.597000",
          "140938.597000",
          "140938.597000",
          "140958.535000",
          "140958.535000",
          "140958.550000",
          "140958.550000",
          "140958.550000",
          "140958.550000",
          "140958.550000",
          "140958.550000",
          "140958.550000",
          "140958.566000",
          "141038.535000",
          "141038.550000",
          "141038.550000",
          "141038.550000",
          "141038.550000",
          "141038.566000",
          "141038.566000",
          "141038.566000",
          "141038.582000",
          "141038.582000",
          "141038.582000",
          "141038.582000",
          "141038.582000",
          "141038.597000",
          "141038.597000",
          "141038.597000",
          "141038.597000",
          "141038.597000",
          "141038.597000",
          "141038.613000",
          "141118.535000",
          "141118.535000",
          "141118.535000",
          "141118.550000",
          "141118.550000",
          "141118.550000",
          "141118.550000",
          "141118.550000",
          "141118.566000",
          "141118.566000",
          "141118.566000",
          "141118.566000",
          "141118.582000",
          "141118.582000",
          "141118.582000",
          "141118.582000",
          "141118.582000",
          "141118.582000",
          "141118.582000",
          "141118.597000",
          "141144.441000",
          "141144.441000",
          "141144.441000",
          "141144.441000",
          "141144.457000",
          "141144.457000",
          "141144.457000",
          "141144.457000",
          "141144.457000",
          "141144.457000",
          "141144.472000",
          "141144.472000",
          "141144.472000"
        ],
        "InstanceNumber": [
          1,
          2,
          3,
          4,
          5,
          6,
          7,
          8,
          9,
          10,
          11,
          12,
          13,
          14,
          15,
          16,
          17,
          18,
          19,
          20,
          21,
          22,
          23,
          24,
          25,
          26,
          27,
          28,
          29,
          30,
          31,
          32,
          33,
          34,
          35,
          36,
          37,
          38,
          39,
          40,
          41,
          42,
          43,
          44,
          45,
          46,
          47,
          48,
          49,
          50,
          51,
          52,
          53,
          54,
          55,
          56,
          57,
          58,
          59,
          60,
          61,
          62,
          63,
          64,
          65,
          66,
          67,
          68,
          69,
          70,
          71,
          72,
          73,
          74,
          75,
          76,
          77,
          78,
          79,
          80,
          81,
          82,
          83,
          84,
          85,
          86,
          87,
          88,
          89,
          90,
          91,
          92,
          93,
          94,
          95,
          96,
          97,
          98,
          99,
          100,
          101,
          102,
          103,
          104,
          105,
          106,
          107,
          108,
          109,
          110,
          111,
          112,
          113,
          114,
          115,
          116,
          117,
          118,
          119,
          120,
          121,
          122,
          123,
          124,
          125,
          126,
          127,
          128,
          129,
          130,
          131,
          132,
          133,
          134,
          135,
          136,
          137,
          138,
          139,
          140,
          141,
          142,
          143,
          144,
          145,
          146,
          147,
          148,
          149,
          150,
          151,
          152,
          153,
          154,
          155,
          156,
          157,
          158,
          159,
          160,
          161,
          162,
          163,
          164
        ],
        "WindowCenter": [
          1052.0,
          1050.0,
          1051.0,
          1051.0,
          1049.0,
          1052.0,
          1051.0,
          1052.0,
          1052.0,
          1051.0,
          1052.0,
          1051.0,
          1051.0,
          1053.0,
          1051.0,
          1051.0,
          1052.0,
          1051.0,
          1054.0,
          1052.0,
          1052.0,
          1053.0,
          1052.0,
          1054.0,
          1051.0,
          1050.0,
          1051.0,
          1050.0,
          1050.0,
          1051.0,
          1051.0,
          1052.0,
          1051.0,
          1053.0,
          1051.0,
          1051.0,
          1052.0,
          1053.0,
          1052.0,
          1051.0,
          1050.0,
          1052.0,
          1052.0,
          1054.0,
          1053.0,
          1054.0,
          1053.0,
          1056.0,
          1056.0,
          1052.0,
          1051.0,
          1053.0,
          1053.0,
          1055.0,
          1053.0,
          1054.0,
          1053.0,
          1053.0,
          1054.0,
          1052.0,
          1055.0,
          1053.0,
          1053.0,
          1054.0,
          1052.0,
          1053.0,
          1052.0,
          1052.0,
          1053.0,
          1054.0,
          1055.0,
          1055.0,
          1054.0,
          1054.0,
          1053.0,
          1054.0,
          1054.0,
          1055.0,
          1054.0,
          1053.0,
          1052.0,
          1054.0,
          1054.0,
          1054.0,
          1054.0,
          1055.0,
          1053.0,
          1055.0,
          1054.0,
          1055.0,
          1055.0,
          1054.0,
          1054.0,
          1054.0,
          1055.0,
          1054.0,
          1051.0,
          1052.0,
          1054.0,
          1055.0,
          1053.0,
          1054.0,
          1057.0,
          1056.0,
          1056.0,
          1058.0,
          1057.0,
          1058.0,
          1059.0,
          1057.0,
          1055.0,
          1052.0,
          1052.0,
          1052.0,
          1055.0,
          1056.0,
          1053.0,
          1053.0,
          1052.0,
          1053.0,
          1052.0,
          1052.0,
          1053.0,
          1052.0,
          1054.0,
          1055.0,
          1054.0,
          1054.0,
          1055.0,
          1056.0,
          1056.0,
          1056.0,
          1056.0,
          1055.0,
          1056.0,
          1055.0,
          1056.0,
          1054.0,
          1054.0,
          1055.0,
          1054.0,
          1054.0,
          1055.0,
          1056.0,
          1054.0,
          1054.0,
          1056.0,
          1058.0,
          1055.0,
          1054.0,
          1054.0,
          1055.0,
          1056.0,
          1056.0,
          1056.0,
          1055.0,
          1054.0,
          1057.0,
          1056.0,
          1058.0,
          1055.0,
          1055.0,
          1058.0,
          1057.0
        ],
        "WindowWidth": [
          2803.0,
          2795.0,
          2803.0,
          2795.0,
          2796.0,
          2804.0,
          2797.0,
          2805.0,
          2803.0,
          2798.0,
          2804.0,
          2801.0,
          2804.0,
          2812.0,
          2803.0,
          2801.0,
          2800.0,
          2803.0,
          2814.0,
          2801.0,
          2797.0,
          2808.0,
          2805.0,
          2808.0,
          2799.0,
          2797.0,
          2797.0,
          2795.0,
          2802.0,
          2803.0,
          2801.0,
          2808.0,
          2801.0,
          2807.0,
          2800.0,
          2799.0,
          2813.0,
          2804.0,
          2805.0,
          2800.0,
          2800.0,
          2807.0,
          2800.0,
          2812.0,
          2810.0,
          2809.0,
          2811.0,
          2819.0,
          2816.0,
          2799.0,
          2797.0,
          2808.0,
          2809.0,
          2811.0,
          2800.0,
          2812.0,
          2805.0,
          2806.0,
          2807.0,
          2802.0,
          2811.0,
          2805.0,
          2805.0,
          2805.0,
          2800.0,
          2805.0,
          2801.0,
          2800.0,
          2810.0,
          2807.0,
          2817.0,
          2813.0,
          2807.0,
          2812.0,
          2806.0,
          2808.0,
          2811.0,
          2810.0,
          2804.0,
          2800.0,
          2806.0,
          2805.0,
          2804.0,
          2808.0,
          2805.0,
          2815.0,
          2806.0,
          2814.0,
          2808.0,
          2814.0,
          2812.0,
          2803.0,
          2807.0,
          2805.0,
          2815.0,
          2806.0,
          2799.0,
          2807.0,
          2814.0,
          2808.0,
          2803.0,
          2808.0,
          2818.0,
          2811.0,
          2815.0,
          2824.0,
          2821.0,
          2827.0,
          2826.0,
          2815.0,
          2807.0,
          2802.0,
          2799.0,
          2804.0,
          2817.0,
          2810.0,
          2809.0,
          2808.0,
          2801.0,
          2808.0,
          2800.0,
          2807.0,
          2802.0,
          2807.0,
          2812.0,
          2814.0,
          2809.0,
          2811.0,
