{
  "aor": 0.004504756097560975,
  "aqi": 0.006457030243902439,
  "bids_meta": {
    "AcquisitionMatrixPE": 96,
    "AcquisitionNumber": 1,
    "AcquisitionTime": "11:04:51.627500",
    "BandwidthPerPixelPhaseEncode": 52.083,
    "BaseResolution": 96,
    "BodyPartExamined": "HEAD",
    "ConversionSoftware": "dcm2niix",
    "ConversionSoftwareVersion": "v1.0.20180622 GCC6.3.0",
    "DerivedVendorReportedEchoSpacing": 0.000600004,
    "DeviceSerialNumber": "18926",
    "DwellTime": 2.6e-06,
    "EchoTime": 0.025,
    "EffectiveEchoSpacing": 0.000200001,
    "FlipAngle": 50,
    "ImageOrientationPatientDICOM": [
      0.999992,
      0.00067012,
      0.00404905,
      2.11009e-10,
      0.98658,
      -0.16328
    ],
    "ImageType": [
      "ORIGINAL",
      "PRIMARY",
      "M",
      "ND",
      "ECHO",
      "00",
      "MOSAIC"
    ],
    "InPlanePhaseEncodingDirectionDICOM": "ROW",
    "InstitutionName": "NIMH",
    "InstitutionalDepartmentName": "Department",
    "MRAcquisitionType": "2D",
    "MagneticFieldStrength": 6.98,
    "Manufacturer": "Siemens",
    "ManufacturersModelName": "Investigational_Device_7T",
    "Modality": "MR",
    "ParallelReductionFactorInPlane": 3,
    "PartialFourier": 1,
    "PatientPosition": "HFS",
    "PercentPhaseFOV": 100,
    "PhaseEncodingDirection": "i",
    "PhaseEncodingSteps": 94,
    "PhaseResolution": 1,
    "PixelBandwidth": 2003,
    "ProcedureStepDescription": "MRI_Procedure_Limited",
    "ProtocolName": "NIH_EPI_2.0iso_TR2_Run07",
    "PulseSequenceDetails": "%CustomerSeq%_inati_nih_epi",
    "ReceiveCoilName": "32Ch_Head_7T",
    "ReconMatrixPE": 96,
    "RepetitionTime": 2,
    "SAR": 0.0921352,
    "ScanningSequence": "EP",
    "SequenceName": "epfid2d1_96",
    "SequenceVariant": "SK",
    "SeriesDescription": "NIH_EPI_2.0iso_TR2_Run07",
    "SeriesNumber": 11,
    "ShimSetting": [
      -125,
      144,
      1430,
      2389,
      -185,
      -70,
      136,
      -236
    ],
    "SliceThickness": 2,
    "SliceTiming": [
      1.0025,
      0,
      1.04,
      0.035,
      1.0775,
      0.0725,
      1.115,
      0.11,
      1.1525,
      0.1475,
      1.1875,
      0.185,
      1.225,
      0.2225,
      1.2625,
      0.26,
      1.3,
      0.295,
      1.3375,
      0.3325,
      1.375,
      0.37,
      1.4125,
      0.4075,
      1.45,
      0.445,
      1.485,
      0.4825,
      1.5225,
      0.52,
      1.56,
      0.5575,
      1.5975,
      0.5925,
      1.635,
      0.63,
      1.6725,
      0.6675,
      1.71,
      0.705,
      1.745,
      0.7425,
      1.7825,
      0.78,
      1.82,
      0.8175,
      1.8575,
      0.855,
      1.895,
      0.89,
      1.9325,
      0.9275,
      1.97,
      0.965
    ],
    "SoftwareVersions": "syngo_MR_B17",
    "SpacingBetweenSlices": 2,
    "StationName": "FMRIFD7T",
    "TaskName": "FullFovNoAttentionTask",
    "TotalReadoutTime": 0.0190001,
    "TxRefAmp": 303,
    "dataset": "ds001555",
    "dcmmeta_affine": [
      [
        -1.9999831914901733,
        4.2201880878778297e-10,
        0.008208253420889378,
        95.76705169677734
      ],
      [
        -0.0013402394251897931,
        1.973159670829773,
        -0.32655632495880127,
        -63.118167877197266
      ],
      [
        0.008098097518086433,
        0.32655906677246094,
        1.9731431007385254,
        -38.87153625488281
      ],
      [
        0.0,
        0.0,
        0.0,
        1.0
      ]
    ],
    "dcmmeta_reorient_transform": [
      [
        0.0,
        -1.0,
        0.0,
        95.0
      ],
      [
        1.0,
        0.0,
        0.0,
        0.0
      ],
      [
        0.0,
        0.0,
        1.0,
        0.0
      ],
      [
        0.0,
        0.0,
        0.0,
        1.0
      ]
    ],
    "dcmmeta_shape": [
      96,
      96,
      54,
      164
    ],
    "dcmmeta_slice_dim": 2,
    "dcmmeta_version": 0.6,
    "global": {
      "const": {
        "AcquisitionMatrix": [
          0,
          96,
          96,
          0
        ],
        "Allergies": "No Known Allergies",
        "AngioFlag": "N",
        "BitsAllocated": 16,
        "BitsStored": 12,
        "BodyPartExamined": "HEAD",
        "Columns": 768,
        "EchoNumbers": 1,
        "EchoTime": 25.0,
        "EchoTrainLength": 1,
        "FlipAngle": 50.0,
        "HighBit": 11,
        "ImageOrientationPatient": [
          0.99999157803662,
          0.00067011969073,
          0.00404904870684,
          2.110094e-10,
          0.98657984636313,
          -0.1632795356133
        ],
        "ImagePositionPatient": [
          -767.761392775,
          -787.76398131462,
          99.154463849561
        ],
        "ImageType": [
          "ORIGINAL",
          "PRIMARY",
          "M",
          "ND",
          "ECHO_00",
          "MOSAIC"
        ],
        "ImagedNucleus": "1H",
        "ImagingFrequency": 297.205022,
        "InPlanePhaseEncodingDirection": "ROW",
        "LargestImagePixelValue": 4095,
        "MRAcquisitionType": "2D",
        "MagneticFieldStrength": 6.98,
        "Manufacturer": "SIEMENS",
        "ManufacturerModelName": "Investigational_Device_7T",
        "Modality": "MR",
        "NumberOfAverages": 1.0,
        "NumberOfPhaseEncodingSteps": 94,
        "PercentPhaseFieldOfView": 100.0,
        "PercentSampling": 100.0,
        "PerformedProcedureStepStartTime": "101043.468000",
        "PhotometricInterpretation": "MONOCHROME2",
        "PixelBandwidth": 2003.0,
        "PixelRepresentation": 0,
        "PixelSpacing": [
          2.0,
          2.0
        ],
        "PositionReferenceIndicator": "",
        "ProcedureCodeSequence": [
          {
            "CodeMeaning": "MRI Procedure Limited",
            "CodeValue": "MI01491",
            "CodingSchemeDesignator": "USA Standard",
            "ContextIdentifier": "4000109575"
          }
        ],
        "ProtocolName": "NIH_EPI_2.0iso_TR2_Run07",
        "ReferencedStudySequence": [
          {
            "ReferencedSOPClassUID": "1.2.840.10008.3.1.2.3.1",
            "ReferencedSOPInstanceUID": "1.2.840.113564.9.1.2723958737.61.2.5000075337"
          }
        ],
        "RepetitionTime": 2000.0,
        "RequestedProcedureCodeSequence": [
          {
            "CodeMeaning": "MRI Procedure Limited",
            "CodeValue": "MI01491",
            "CodingSchemeDesignator": "USA Standard",
            "ContextIdentifier": "4000109575"
          }
        ],
        "RequestingService": "MHED",
        "Rows": 768,
        "SAR": 0.09213524071949,
        "SamplesPerPixel": 1,
        "ScanningSequence": "EP",
        "SequenceName": "epfid2d1_96",
        "SequenceVariant": "SK",
        "SeriesDescription": "NIH_EPI_2.0iso_TR2_Run07",
        "SeriesNumber": 11,
        "SliceLocation": -27.650691900607,
        "SliceThickness": 2.0,
        "SmallestImagePixelValue": 0,
        "SoftwareVersions": "syngo MR B17",
        "SpacingBetweenSlices": 1.9999999799801,
        "TransmitCoilName": "32Ch_Head_7T",
        "VariableFlipAngleFlag": "N",
        "WindowCenterWidthExplanation": "Algo1",
        "dBdt": 0.0
      },
      "slices": {}
    },
    "modality": "bold",
    "run_id": 8,
    "session_id": "04",
    "subject_id": "002",
    "task_id": "FullFovNoAttentionTask",
    "time": {
      "samples": {
        "AcquisitionNumber": [
          1,
          2,
          3,
          4,
          5,
          6,
          7,
          8,
          9,
          10,
          11,
          12,
          13,
          14,
          15,
          16,
          17,
          18,
          19,
          20,
          21,
          22,
          23,
          24,
          25,
          26,
          27,
          28,
          29,
          30,
          31,
          32,
          33,
          34,
          35,
          36,
          37,
          38,
          39,
          40,
          41,
          42,
          43,
          44,
          45,
          46,
          47,
          48,
          49,
          50,
          51,
          52,
          53,
          54,
          55,
          56,
          57,
          58,
          59,
          60,
          61,
          62,
          63,
          64,
          65,
          66,
          67,
          68,
          69,
          70,
          71,
          72,
          73,
          74,
          75,
          76,
          77,
          78,
          79,
          80,
          81,
          82,
          83,
          84,
          85,
          86,
          87,
          88,
          89,
          90,
          91,
          92,
          93,
          94,
          95,
          96,
          97,
          98,
          99,
          100,
          101,
          102,
          103,
          104,
          105,
          106,
          107,
          108,
          109,
          110,
          111,
          112,
          113,
          114,
          115,
          116,
          117,
          118,
          119,
          120,
          121,
          122,
          123,
          124,
          125,
          126,
          127,
          128,
          129,
          130,
          131,
          132,
          133,
          134,
          135,
          136,
          137,
          138,
          139,
          140,
          141,
          142,
          143,
          144,
          145,
          146,
          147,
          148,
          149,
          150,
          151,
          152,
          153,
          154,
          155,
          156,
          157,
          158,
          159,
          160,
          161,
          162,
          163,
          164
        ],
        "AcquisitionTime": [
          "110451.627500",
          "110455.642500",
          "110457.652500",
          "110459.660000",
          "110501.667500",
          "110503.675000",
          "110505.685000",
          "110507.692500",
          "110509.700000",
          "110511.707500",
          "110513.715000",
          "110515.725000",
          "110517.732500",
          "110519.740000",
          "110521.747500",
          "110523.755000",
          "110525.765000",
          "110527.772500",
          "110529.780000",
          "110531.787500",
          "110533.797500",
          "110535.805000",
          "110537.812500",
          "110539.820000",
          "110541.827500",
          "110543.837500",
          "110545.845000",
          "110547.852500",
          "110549.860000",
          "110551.867500",
          "110553.877500",
          "110555.885000",
          "110557.892500",
          "110559.900000",
          "110601.910000",
          "110603.917500",
          "110605.925000",
          "110607.932500",
          "110609.940000",
          "110611.950000",
          "110613.957500",
          "110615.965000",
          "110617.972500",
          "110619.980000",
          "110621.990000",
          "110623.997500",
          "110626.005000",
          "110628.012500",
          "110630.020000",
          "110632.030000",
          "110634.037500",
          "110636.045000",
          "110638.052500",
          "110640.062500",
          "110642.070000",
          "110644.077500",
          "110646.085000",
          "110648.092500",
          "110650.102500",
          "110652.110000",
          "110654.117500",
          "110656.125000",
          "110658.132500",
          "110700.142500",
          "110702.150000",
          "110704.157500",
          "110706.165000",
          "110708.175000",
          "110710.182500",
          "110712.190000",
          "110714.197500",
          "110716.205000",
          "110718.215000",
          "110720.222500",
          "110722.230000",
          "110724.237500",
          "110726.245000",
          "110728.255000",
          "110730.262500",
          "110732.270000",
          "110734.277500",
          "110736.287500",
          "110738.295000",
          "110740.302500",
          "110742.310000",
          "110744.317500",
          "110746.327500",
          "110748.335000",
          "110750.342500",
          "110752.350000",
          "110754.357500",
          "110756.367500",
          "110758.375000",
          "110800.382500",
          "110802.390000",
          "110804.397500",
          "110806.407500",
          "110808.415000",
          "110810.422500",
          "110812.430000",
          "110814.440000",
          "110816.447500",
          "110818.455000",
          "110820.462500",
          "110822.470000",
          "110824.480000",
          "110826.487500",
          "110828.495000",
          "110830.502500",
          "110832.510000",
          "110834.520000",
          "110836.527500",
          "110838.535000",
          "110840.542500",
          "110842.552500",
          "110844.560000",
          "110846.567500",
          "110848.575000",
          "110850.582500",
          "110852.592500",
          "110854.600000",
          "110856.607500",
          "110858.615000",
          "110900.622500",
          "110902.632500",
          "110904.640000",
          "110906.647500",
          "110908.655000",
          "110910.665000",
          "110912.672500",
          "110914.680000",
          "110916.687500",
          "110918.695000",
          "110920.705000",
          "110922.712500",
          "110924.720000",
          "110926.727500",
          "110928.735000",
          "110930.745000",
          "110932.752500",
          "110934.760000",
          "110936.767500",
          "110938.775000",
          "110940.785000",
          "110942.792500",
          "110944.800000",
          "110946.807500",
          "110948.817500",
          "110950.825000",
          "110952.832500",
          "110954.840000",
          "110956.847500",
          "110958.857500",
          "111000.865000",
          "111002.872500",
          "111004.880000",
          "111006.887500",
          "111008.897500",
          "111010.905000",
          "111012.912500",
          "111014.920000",
          "111016.930000",
          "111018.937500",
          "111020.945000"
        ],
        "ContentTime": [
          "110544.640000",
          "110544.656000",
          "110544.656000",
          "110544.656000",
          "110544.656000",
          "110544.656000",
          "110544.671000",
          "110544.687000",
          "110544.687000",
          "110544.687000",
          "110544.687000",
          "110544.703000",
          "110544.703000",
          "110544.703000",
          "110544.703000",
          "110544.703000",
          "110544.703000",
          "110544.703000",
          "110544.718000",
          "110544.718000",
          "110544.718000",
          "110544.718000",
          "110544.718000",
          "110544.718000",
          "110544.718000",
          "110624.640000",
          "110624.640000",
          "110624.656000",
          "110624.656000",
          "110624.656000",
          "110624.656000",
          "110624.656000",
          "110624.656000",
          "110624.656000",
          "110624.671000",
          "110624.671000",
          "110624.671000",
          "110624.671000",
          "110624.671000",
          "110624.671000",
          "110624.687000",
          "110624.687000",
          "110624.687000",
          "110624.687000",
          "110624.687000",
          "110704.640000",
          "110704.640000",
          "110704.640000",
          "110704.640000",
          "110704.656000",
          "110704.656000",
          "110704.656000",
          "110704.656000",
          "110704.656000",
          "110704.671000",
          "110704.671000",
          "110704.671000",
          "110704.671000",
          "110704.687000",
          "110704.687000",
          "110704.687000",
          "110704.687000",
          "110704.687000",
          "110704.687000",
          "110704.703000",
          "110744.640000",
          "110744.640000",
          "110744.640000",
          "110744.640000",
          "110744.656000",
          "110744.656000",
          "110744.656000",
          "110744.656000",
          "110744.671000",
          "110744.671000",
          "110744.671000",
          "110744.671000",
          "110744.671000",
          "110744.671000",
          "110744.687000",
          "110744.687000",
          "110744.687000",
          "110744.687000",
          "110744.687000",
          "110744.703000",
          "110824.640000",
          "110824.640000",
          "110824.640000",
          "110824.640000",
          "110824.640000",
          "110824.656000",
          "110824.656000",
          "110824.656000",
          "110824.656000",
          "110824.656000",
          "110824.656000",
          "110824.671000",
          "110824.671000",
          "110824.671000",
          "110824.671000",
          "110824.671000",
          "110824.671000",
          "110824.671000",
          "110824.687000",
          "110824.687000",
          "110904.640000",
          "110904.640000",
          "110904.640000",
          "110904.640000",
          "110904.656000",
          "110904.656000",
          "110904.656000",
          "110904.656000",
          "110904.656000",
          "110904.656000",
          "110904.656000",
          "110904.671000",
          "110904.671000",
          "110904.671000",
          "110904.671000",
          "110904.671000",
          "110904.671000",
          "110904.687000",
          "110904.687000",
          "110904.687000",
          "110944.640000",
          "110944.640000",
          "110944.640000",
          "110944.640000",
          "110944.640000",
          "110944.656000",
          "110944.656000",
          "110944.656000",
          "110944.656000",
          "110944.656000",
          "110944.656000",
          "110944.671000",
          "110944.671000",
          "110944.671000",
          "110944.671000",
          "110944.671000",
          "110944.671000",
          "110944.671000",
          "110944.687000",
          "110944.687000",
          "111021.234000",
          "111021.250000",
          "111021.250000",
          "111021.250000",
          "111021.250000",
          "111021.250000",
          "111021.250000",
          "111021.250000",
          "111021.265000",
          "111021.265000",
          "111021.265000",
          "111021.265000",
          "111021.265000",
          "111021.265000",
          "111021.281000",
          "111021.281000",
          "111021.281000",
          "111021.281000",
          "111021.281000"
        ],
        "InstanceCreationTime": [
          "110544.640000",
          "110544.656000",
          "110544.656000",
          "110544.656000",
          "110544.656000",
          "110544.656000",
          "110544.671000",
          "110544.687000",
          "110544.687000",
          "110544.687000",
          "110544.687000",
          "110544.703000",
          "110544.703000",
          "110544.703000",
          "110544.703000",
          "110544.703000",
          "110544.703000",
          "110544.703000",
          "110544.718000",
          "110544.718000",
          "110544.718000",
          "110544.718000",
          "110544.718000",
          "110544.718000",
          "110544.718000",
          "110624.640000",
          "110624.640000",
          "110624.656000",
          "110624.656000",
          "110624.656000",
          "110624.656000",
          "110624.656000",
          "110624.656000",
          "110624.656000",
          "110624.671000",
          "110624.671000",
          "110624.671000",
          "110624.671000",
          "110624.671000",
          "110624.671000",
          "110624.687000",
          "110624.687000",
          "110624.687000",
          "110624.687000",
          "110624.687000",
          "110704.640000",
          "110704.640000",
          "110704.640000",
          "110704.640000",
          "110704.656000",
          "110704.656000",
          "110704.656000",
          "110704.656000",
          "110704.656000",
          "110704.671000",
          "110704.671000",
          "110704.671000",
          "110704.671000",
          "110704.687000",
          "110704.687000",
          "110704.687000",
          "110704.687000",
          "110704.687000",
          "110704.687000",
          "110704.703000",
          "110744.640000",
          "110744.640000",
          "110744.640000",
          "110744.640000",
          "110744.656000",
          "110744.656000",
          "110744.656000",
          "110744.656000",
          "110744.671000",
          "110744.671000",
          "110744.671000",
          "110744.671000",
          "110744.671000",
          "110744.671000",
          "110744.687000",
          "110744.687000",
          "110744.687000",
          "110744.687000",
          "110744.687000",
          "110744.703000",
          "110824.640000",
          "110824.640000",
          "110824.640000",
          "110824.640000",
          "110824.640000",
          "110824.656000",
          "110824.656000",
          "110824.656000",
          "110824.656000",
          "110824.656000",
          "110824.656000",
          "110824.671000",
          "110824.671000",
          "110824.671000",
          "110824.671000",
          "110824.671000",
          "110824.671000",
          "110824.671000",
          "110824.687000",
          "110824.687000",
          "110904.640000",
          "110904.640000",
          "110904.640000",
          "110904.640000",
          "110904.656000",
          "110904.656000",
          "110904.656000",
          "110904.656000",
          "110904.656000",
          "110904.656000",
          "110904.656000",
          "110904.671000",
          "110904.671000",
          "110904.671000",
          "110904.671000",
          "110904.671000",
          "110904.671000",
          "110904.687000",
          "110904.687000",
          "110904.687000",
          "110944.640000",
          "110944.640000",
          "110944.640000",
          "110944.640000",
          "110944.640000",
          "110944.656000",
          "110944.656000",
          "110944.656000",
          "110944.656000",
          "110944.656000",
          "110944.656000",
          "110944.671000",
          "110944.671000",
          "110944.671000",
          "110944.671000",
          "110944.671000",
          "110944.671000",
          "110944.671000",
          "110944.687000",
          "110944.687000",
          "111021.234000",
          "111021.250000",
          "111021.250000",
          "111021.250000",
          "111021.250000",
          "111021.250000",
          "111021.250000",
          "111021.250000",
          "111021.265000",
          "111021.265000",
          "111021.265000",
          "111021.265000",
          "111021.265000",
          "111021.265000",
          "111021.281000",
          "111021.281000",
          "111021.281000",
          "111021.281000",
          "111021.281000"
        ],
        "InstanceNumber": [
          1,
          2,
          3,
          4,
          5,
          6,
          7,
          8,
          9,
          10,
          11,
          12,
          13,
          14,
          15,
          16,
          17,
          18,
          19,
          20,
          21,
          22,
          23,
          24,
          25,
          26,
          27,
          28,
          29,
          30,
          31,
          32,
          33,
          34,
          35,
          36,
          37,
          38,
          39,
          40,
          41,
          42,
          43,
          44,
          45,
          46,
          47,
          48,
          49,
          50,
          51,
          52,
          53,
          54,
          55,
          56,
          57,
          58,
          59,
          60,
          61,
          62,
          63,
          64,
          65,
          66,
          67,
          68,
          69,
          70,
          71,
          72,
          73,
          74,
          75,
          76,
          77,
          78,
          79,
          80,
          81,
          82,
          83,
          84,
          85,
          86,
          87,
          88,
          89,
          90,
          91,
          92,
          93,
          94,
          95,
          96,
          97,
          98,
          99,
          100,
          101,
          102,
          103,
          104,
          105,
          106,
          107,
          108,
          109,
          110,
          111,
          112,
          113,
          114,
          115,
          116,
          117,
          118,
          119,
          120,
          121,
          122,
          123,
          124,
          125,
          126,
          127,
          128,
          129,
          130,
          131,
          132,
          133,
          134,
          135,
          136,
          137,
          138,
          139,
          140,
          141,
          142,
          143,
          144,
          145,
          146,
          147,
          148,
          149,
          150,
          151,
          152,
          153,
          154,
          155,
          156,
          157,
          158,
          159,
          160,
          161,
          162,
          163,
          164
        ],
        "WindowCenter": [
          1068.0,
          1068.0,
          1069.0,
          1068.0,
          1065.0,
          1068.0,
          1069.0,
          1066.0,
          1066.0,
          1068.0,
          1067.0,
          1066.0,
          1070.0,
          1068.0,
          1065.0,
          1069.0,
          1069.0,
          1069.0,
          1072.0,
          1070.0,
          1069.0,
          1070.0,
          1069.0,
          1070.0,
          1070.0,
          1070.0,
          1071.0,
          1072.0,
          1070.0,
          1070.0,
          1071.0,
          1071.0,
          1072.0,
          1073.0,
          1071.0,
          1070.0,
          1072.0,
          1073.0,
          1071.0,
          1071.0,
          1071.0,
          1070.0,
          1068.0,
          1068.0,
          1070.0,
          1068.0,
          1071.0,
          1069.0,
          1070.0,
          1071.0,
          1070.0,
          1069.0,
          1070.0,
          1069.0,
          1071.0,
          1070.0,
          1071.0,
          1070.0,
          1071.0,
          1072.0,
          1073.0,
          1074.0,
          1071.0,
          1071.0,
          1070.0,
          1071.0,
          1071.0,
          1070.0,
          1070.0,
          1071.0,
          1073.0,
          1074.0,
          1071.0,
          1071.0,
          1073.0,
          1073.0,
          1071.0,
          1069.0,
          1068.0,
          1072.0,
          1073.0,
          1071.0,
          1070.0,
          1070.0,
          1071.0,
          1071.0,
          1069.0,
          1070.0,
          1072.0,
          1070.0,
          1072.0,
          1071.0,
          1071.0,
          1071.0,
          1070.0,
          1071.0,
          1071.0,
          1070.0,
          1073.0,
          1071.0,
          1070.0,
          1072.0,
          1071.0,
          1073.0,
          1073.0,
          1072.0,
          1072.0,
          1073.0,
          1071.0,
          1073.0,
          1073.0,
          1073.0,
          1072.0,
          1071.0,
          1071.0,
          1072.0,
          1073.0,
          1072.0,
          1072.0,
          1073.0,
          1074.0,
          1074.0,
          1074.0,
          1076.0,
          1072.0,
          1074.0,
          1075.0,
          1073.0,
          1073.0,
          1073.0,
          1074.0,
          1074.0,
          1073.0,
          1073.0,
          1074.0,
          1072.0,
          1073.0,
          1074.0,
          1075.0,
          1074.0,
          1075.0,
          1076.0,
          1076.0,
          1076.0,
          1076.0,
          1075.0,
          1074.0,
          1073.0,
          1077.0,
          1074.0,
          1075.0,
          1074.0,
          1071.0,
          1074.0,
          1076.0,
          1074.0,
          1075.0,
          1074.0,
          1075.0,
          1075.0,
          1077.0,
          1078.0,
          1077.0,
          1076.0
        ],
        "WindowWidth": [
          2896.0,
          2901.0,
          2900.0,
          2894.0,
          2886.0,
          2900.0,
          2900.0,
          2894.0,
          2889.0,
          2899.0,
          2892.0,
          2894.0,
          2900.0,
          2892.0,
          2886.0,
          2902.0,
          2900.0,
          2896.0,
          2901.0,
          2890.0,
          2885.0,
          2895.0,
          2896.0,
          2895.0,
          2896.0,
          2894.0,
          2905.0,
          2901.0,
          2891.0,
          2900.0,
          2899.0,
          2897.0,
          2908.0,
          2899.0,
          2902.0,
          2893.0,
          2906.0,
          2911.0,
          2897.0,
          2905.0,
          2901.0,
          2902.0,
          2891.0,
          2900.0,
          2902.0,
          2898.0,
          2906.0,
          2897.0,
          2901.0,
          2904.0,
          2895.0,
          2904.0,
          2895.0,
          2896.0,
          2903.0,
          2894.0,
          2901.0,
          2893.0,
          2899.0,
          2895.0,
          2900.0,
          2904.0,
          2896.0,
          2902.0,
          2894.0,
          2906.0,
          2899.0,
          2897.0,
          2898.0,
          2900.0,
          2911.0,
          2911.0,
          2898.0,
          2907.0,
          2916.0,
          2911.0,
          2899.0,
          2892.0,
          2888.0,
          2909.0,
          2905.0,
          2897.0,
