{
  "aor": 0.0014339024390243903,
  "aqi": 0.004236795182926829,
  "bids_meta": {
    "AcquisitionMatrixPE": 96,
    "AcquisitionNumber": 1,
    "AcquisitionTime": "11:47:47.602500",
    "BandwidthPerPixelPhaseEncode": 52.083,
    "BaseResolution": 96,
    "BodyPartExamined": "HEAD",
    "ConversionSoftware": "dcm2niix",
    "ConversionSoftwareVersion": "v1.0.20180622 GCC6.3.0",
    "DerivedVendorReportedEchoSpacing": 0.000600004,
    "DeviceSerialNumber": "18926",
    "DwellTime": 2.6e-06,
    "EchoTime": 0.025,
    "EffectiveEchoSpacing": 0.000200001,
    "FlipAngle": 50,
    "ImageOrientationPatientDICOM": [
      0.999992,
      0.00067012,
      0.00404905,
      2.11009e-10,
      0.98658,
      -0.16328
    ],
    "ImageType": [
      "ORIGINAL",
      "PRIMARY",
      "M",
      "ND",
      "ECHO",
      "00",
      "MOSAIC"
    ],
    "InPlanePhaseEncodingDirectionDICOM": "ROW",
    "InstitutionName": "NIMH",
    "InstitutionalDepartmentName": "Department",
    "MRAcquisitionType": "2D",
    "MagneticFieldStrength": 6.98,
    "Manufacturer": "Siemens",
    "ManufacturersModelName": "Investigational_Device_7T",
    "Modality": "MR",
    "ParallelReductionFactorInPlane": 3,
    "PartialFourier": 1,
    "PatientPosition": "HFS",
    "PercentPhaseFOV": 100,
    "PhaseEncodingDirection": "i",
    "PhaseEncodingSteps": 94,
    "PhaseResolution": 1,
    "PixelBandwidth": 2003,
    "ProcedureStepDescription": "MRI_Procedure_Limited",
    "ProtocolName": "NIH_EPI_2.0iso_TR2_Run14",
    "PulseSequenceDetails": "%CustomerSeq%_inati_nih_epi",
    "ReceiveCoilName": "32Ch_Head_7T",
    "ReconMatrixPE": 96,
    "RepetitionTime": 2,
    "SAR": 0.0921352,
    "ScanningSequence": "EP",
    "SequenceName": "epfid2d1_96",
    "SequenceVariant": "SK",
    "SeriesDescription": "NIH_EPI_2.0iso_TR2_Run14",
    "SeriesNumber": 18,
    "ShimSetting": [
      -125,
      144,
      1430,
      2389,
      -185,
      -70,
      136,
      -236
    ],
    "SliceThickness": 2,
    "SliceTiming": [
      1.005,
      0,
      1.0425,
      0.0375,
      1.08,
      0.075,
      1.115,
      0.1125,
      1.1525,
      0.15,
      1.19,
      0.1875,
      1.2275,
      0.225,
      1.265,
      0.26,
      1.3025,
      0.2975,
      1.34,
      0.335,
      1.3775,
      0.3725,
      1.4125,
      0.41,
      1.45,
      0.4475,
      1.4875,
      0.485,
      1.525,
      0.5225,
      1.5625,
      0.5575,
      1.6,
      0.595,
      1.6375,
      0.6325,
      1.675,
      0.67,
      1.71,
      0.7075,
      1.7475,
      0.745,
      1.785,
      0.7825,
      1.8225,
      0.8175,
      1.86,
      0.855,
      1.8975,
      0.8925,
      1.935,
      0.93,
      1.97,
      0.9675
    ],
    "SoftwareVersions": "syngo_MR_B17",
    "SpacingBetweenSlices": 2,
    "StationName": "FMRIFD7T",
    "TaskName": "FullFovNoAttentionTask",
    "TotalReadoutTime": 0.0190001,
    "TxRefAmp": 303,
    "dataset": "ds001555",
    "dcmmeta_affine": [
      [
        -1.9999831914901733,
        4.2201880878778297e-10,
        0.008208253420889378,
        95.76705169677734
      ],
      [
        -0.0013402394251897931,
        1.973159670829773,
        -0.32655632495880127,
        -63.118167877197266
      ],
      [
        0.008098097518086433,
        0.32655906677246094,
        1.9731431007385254,
        -38.87153625488281
      ],
      [
        0.0,
        0.0,
        0.0,
        1.0
      ]
    ],
    "dcmmeta_reorient_transform": [
      [
        0.0,
        -1.0,
        0.0,
        95.0
      ],
      [
        1.0,
        0.0,
        0.0,
        0.0
      ],
      [
        0.0,
        0.0,
        1.0,
        0.0
      ],
      [
        0.0,
        0.0,
        0.0,
        1.0
      ]
    ],
    "dcmmeta_shape": [
      96,
      96,
      54,
      164
    ],
    "dcmmeta_slice_dim": 2,
    "dcmmeta_version": 0.6,
    "global": {
      "const": {
        "AcquisitionMatrix": [
          0,
          96,
          96,
          0
        ],
        "Allergies": "No Known Allergies",
        "AngioFlag": "N",
        "BitsAllocated": 16,
        "BitsStored": 12,
        "BodyPartExamined": "HEAD",
        "Columns": 768,
        "EchoNumbers": 1,
        "EchoTime": 25.0,
        "EchoTrainLength": 1,
        "FlipAngle": 50.0,
        "HighBit": 11,
        "ImageOrientationPatient": [
          0.99999157803662,
          0.00067011969073,
          0.00404904870684,
          2.110094e-10,
          0.98657984636313,
          -0.1632795356133
        ],
        "ImagePositionPatient": [
          -767.761392775,
          -787.76398131462,
          99.154463849561
        ],
        "ImageType": [
          "ORIGINAL",
          "PRIMARY",
          "M",
          "ND",
          "ECHO_00",
          "MOSAIC"
        ],
        "ImagedNucleus": "1H",
        "ImagingFrequency": 297.205134,
        "InPlanePhaseEncodingDirection": "ROW",
        "LargestImagePixelValue": 4095,
        "MRAcquisitionType": "2D",
        "MagneticFieldStrength": 6.98,
        "Manufacturer": "SIEMENS",
        "ManufacturerModelName": "Investigational_Device_7T",
        "Modality": "MR",
        "NumberOfAverages": 1.0,
        "NumberOfPhaseEncodingSteps": 94,
        "PercentPhaseFieldOfView": 100.0,
        "PercentSampling": 100.0,
        "PerformedProcedureStepStartTime": "101043.468000",
        "PhotometricInterpretation": "MONOCHROME2",
        "PixelBandwidth": 2003.0,
        "PixelRepresentation": 0,
        "PixelSpacing": [
          2.0,
          2.0
        ],
        "PositionReferenceIndicator": "",
        "ProcedureCodeSequence": [
          {
            "CodeMeaning": "MRI Procedure Limited",
            "CodeValue": "MI01491",
            "CodingSchemeDesignator": "USA Standard",
            "ContextIdentifier": "4000109575"
          }
        ],
        "ProtocolName": "NIH_EPI_2.0iso_TR2_Run14",
        "ReferencedStudySequence": [
          {
            "ReferencedSOPClassUID": "1.2.840.10008.3.1.2.3.1",
            "ReferencedSOPInstanceUID": "1.2.840.113564.9.1.2723958737.61.2.5000075337"
          }
        ],
        "RepetitionTime": 2000.0,
        "RequestedProcedureCodeSequence": [
          {
            "CodeMeaning": "MRI Procedure Limited",
            "CodeValue": "MI01491",
            "CodingSchemeDesignator": "USA Standard",
            "ContextIdentifier": "4000109575"
          }
        ],
        "RequestingService": "MHED",
        "Rows": 768,
        "SAR": 0.09213524071949,
        "SamplesPerPixel": 1,
        "ScanningSequence": "EP",
        "SequenceName": "epfid2d1_96",
        "SequenceVariant": "SK",
        "SeriesDescription": "NIH_EPI_2.0iso_TR2_Run14",
        "SeriesNumber": 18,
        "SliceLocation": -27.650691900607,
        "SliceThickness": 2.0,
        "SmallestImagePixelValue": 0,
        "SoftwareVersions": "syngo MR B17",
        "SpacingBetweenSlices": 1.9999999799801,
        "TransmitCoilName": "32Ch_Head_7T",
        "VariableFlipAngleFlag": "N",
        "WindowCenterWidthExplanation": "Algo1",
        "dBdt": 0.0
      },
      "slices": {}
    },
    "modality": "bold",
    "run_id": 15,
    "session_id": "04",
    "subject_id": "002",
    "task_id": "FullFovNoAttentionTask",
    "time": {
      "samples": {
        "AcquisitionNumber": [
          1,
          2,
          3,
          4,
          5,
          6,
          7,
          8,
          9,
          10,
          11,
          12,
          13,
          14,
          15,
          16,
          17,
          18,
          19,
          20,
          21,
          22,
          23,
          24,
          25,
          26,
          27,
          28,
          29,
          30,
          31,
          32,
          33,
          34,
          35,
          36,
          37,
          38,
          39,
          40,
          41,
          42,
          43,
          44,
          45,
          46,
          47,
          48,
          49,
          50,
          51,
          52,
          53,
          54,
          55,
          56,
          57,
          58,
          59,
          60,
          61,
          62,
          63,
          64,
          65,
          66,
          67,
          68,
          69,
          70,
          71,
          72,
          73,
          74,
          75,
          76,
          77,
          78,
          79,
          80,
          81,
          82,
          83,
          84,
          85,
          86,
          87,
          88,
          89,
          90,
          91,
          92,
          93,
          94,
          95,
          96,
          97,
          98,
          99,
          100,
          101,
          102,
          103,
          104,
          105,
          106,
          107,
          108,
          109,
          110,
          111,
          112,
          113,
          114,
          115,
          116,
          117,
          118,
          119,
          120,
          121,
          122,
          123,
          124,
          125,
          126,
          127,
          128,
          129,
          130,
          131,
          132,
          133,
          134,
          135,
          136,
          137,
          138,
          139,
          140,
          141,
          142,
          143,
          144,
          145,
          146,
          147,
          148,
          149,
          150,
          151,
          152,
          153,
          154,
          155,
          156,
          157,
          158,
          159,
          160,
          161,
          162,
          163,
          164
        ],
        "AcquisitionTime": [
          "114747.602500",
          "114751.617500",
          "114753.625000",
          "114755.635000",
          "114757.642500",
          "114759.650000",
          "114801.657500",
          "114803.667500",
          "114805.675000",
          "114807.682500",
          "114809.690000",
          "114811.697500",
          "114813.707500",
          "114815.715000",
          "114817.722500",
          "114819.730000",
          "114821.737500",
          "114823.747500",
          "114825.755000",
          "114827.762500",
          "114829.770000",
          "114831.780000",
          "114833.787500",
          "114835.795000",
          "114837.802500",
          "114839.810000",
          "114841.820000",
          "114843.827500",
          "114845.835000",
          "114847.842500",
          "114849.850000",
          "114851.860000",
          "114853.867500",
          "114855.875000",
          "114857.882500",
          "114859.890000",
          "114901.900000",
          "114903.907500",
          "114905.915000",
          "114907.922500",
          "114909.932500",
          "114911.940000",
          "114913.947500",
          "114915.955000",
          "114917.962500",
          "114919.972500",
          "114921.980000",
          "114923.987500",
          "114925.995000",
          "114928.002500",
          "114930.012500",
          "114932.020000",
          "114934.027500",
          "114936.035000",
          "114938.045000",
          "114940.052500",
          "114942.060000",
          "114944.067500",
          "114946.075000",
          "114948.085000",
          "114950.092500",
          "114952.100000",
          "114954.107500",
          "114956.115000",
          "114958.125000",
          "115000.132500",
          "115002.140000",
          "115004.147500",
          "115006.157500",
          "115008.165000",
          "115010.172500",
          "115012.180000",
          "115014.187500",
          "115016.197500",
          "115018.205000",
          "115020.212500",
          "115022.220000",
          "115024.227500",
          "115026.237500",
          "115028.245000",
          "115030.252500",
          "115032.260000",
          "115034.270000",
          "115036.277500",
          "115038.285000",
          "115040.292500",
          "115042.300000",
          "115044.310000",
          "115046.317500",
          "115048.325000",
          "115050.332500",
          "115052.340000",
          "115054.350000",
          "115056.357500",
          "115058.365000",
          "115100.372500",
          "115102.380000",
          "115104.390000",
          "115106.397500",
          "115108.405000",
          "115110.412500",
          "115112.422500",
          "115114.430000",
          "115116.437500",
          "115118.445000",
          "115120.452500",
          "115122.462500",
          "115124.470000",
          "115126.477500",
          "115128.485000",
          "115130.492500",
          "115132.502500",
          "115134.510000",
          "115136.517500",
          "115138.525000",
          "115140.535000",
          "115142.542500",
          "115144.550000",
          "115146.557500",
          "115148.565000",
          "115150.575000",
          "115152.582500",
          "115154.590000",
          "115156.597500",
          "115158.605000",
          "115200.615000",
          "115202.622500",
          "115204.630000",
          "115206.637500",
          "115208.647500",
          "115210.655000",
          "115212.662500",
          "115214.670000",
          "115216.677500",
          "115218.687500",
          "115220.695000",
          "115222.702500",
          "115224.710000",
          "115226.717500",
          "115228.727500",
          "115230.735000",
          "115232.742500",
          "115234.750000",
          "115236.757500",
          "115238.767500",
          "115240.775000",
          "115242.782500",
          "115244.790000",
          "115246.800000",
          "115248.807500",
          "115250.815000",
          "115252.822500",
          "115254.830000",
          "115256.840000",
          "115258.847500",
          "115300.855000",
          "115302.862500",
          "115304.870000",
          "115306.880000",
          "115308.887500",
          "115310.895000",
          "115312.902500",
          "115314.912500",
          "115316.920000"
        ],
        "ContentTime": [
          "114831.000000",
          "114831.015000",
          "114831.015000",
          "114831.015000",
          "114831.031000",
          "114831.031000",
          "114831.031000",
          "114831.031000",
          "114831.031000",
          "114831.031000",
          "114831.046000",
          "114831.046000",
          "114831.046000",
          "114831.046000",
          "114831.046000",
          "114831.046000",
          "114831.046000",
          "114831.062000",
          "114831.062000",
          "114831.062000",
          "114911.000000",
          "114911.000000",
          "114911.000000",
          "114911.000000",
          "114911.000000",
          "114911.015000",
          "114911.015000",
          "114911.015000",
          "114911.015000",
          "114911.015000",
          "114911.015000",
          "114911.015000",
          "114911.031000",
          "114911.031000",
          "114911.031000",
          "114911.031000",
          "114911.031000",
          "114911.031000",
          "114911.031000",
          "114911.046000",
          "114951.000000",
          "114951.000000",
          "114951.000000",
          "114951.000000",
          "114951.000000",
          "114951.015000",
          "114951.015000",
          "114951.015000",
          "114951.015000",
          "114951.015000",
          "114951.015000",
          "114951.015000",
          "114951.031000",
          "114951.031000",
          "114951.031000",
          "114951.031000",
          "114951.031000",
          "114951.031000",
          "114951.031000",
          "114951.046000",
          "115031.000000",
          "115031.000000",
          "115031.000000",
          "115031.015000",
          "115031.015000",
          "115031.015000",
          "115031.031000",
          "115031.031000",
          "115031.031000",
          "115031.031000",
          "115031.031000",
          "115031.031000",
          "115031.046000",
          "115031.046000",
          "115031.046000",
          "115031.046000",
          "115031.046000",
          "115031.062000",
          "115031.062000",
          "115031.062000",
          "115111.000000",
          "115111.000000",
          "115111.000000",
          "115111.000000",
          "115111.000000",
          "115111.015000",
          "115111.015000",
          "115111.015000",
          "115111.015000",
          "115111.031000",
          "115111.031000",
          "115111.031000",
          "115111.031000",
          "115111.031000",
          "115111.031000",
          "115111.046000",
          "115111.046000",
          "115111.046000",
          "115111.046000",
          "115111.046000",
          "115151.000000",
          "115151.000000",
          "115151.000000",
          "115151.000000",
          "115151.000000",
          "115151.015000",
          "115151.015000",
          "115151.015000",
          "115151.015000",
          "115151.031000",
          "115151.031000",
          "115151.031000",
          "115151.046000",
          "115151.046000",
          "115151.046000",
          "115151.046000",
          "115151.046000",
          "115151.062000",
          "115151.062000",
          "115151.062000",
          "115231.000000",
          "115231.000000",
          "115231.000000",
          "115231.000000",
          "115231.000000",
          "115231.015000",
          "115231.015000",
          "115231.015000",
          "115231.015000",
          "115231.015000",
          "115231.031000",
          "115231.031000",
          "115231.031000",
          "115231.031000",
          "115231.046000",
          "115231.046000",
          "115231.046000",
          "115231.046000",
          "115231.046000",
          "115231.046000",
          "115311.000000",
          "115311.000000",
          "115311.000000",
          "115311.000000",
          "115311.000000",
          "115311.015000",
          "115311.015000",
          "115311.015000",
          "115311.015000",
          "115311.015000",
          "115311.015000",
          "115311.031000",
          "115311.031000",
          "115311.031000",
          "115311.046000",
          "115311.046000",
          "115311.046000",
          "115311.046000",
          "115311.046000",
          "115311.046000",
          "115317.078000",
          "115317.093000",
          "115317.093000",
          "115317.093000"
        ],
        "InstanceCreationTime": [
          "114831.000000",
          "114831.015000",
          "114831.015000",
          "114831.015000",
          "114831.031000",
          "114831.031000",
          "114831.031000",
          "114831.031000",
          "114831.031000",
          "114831.031000",
          "114831.046000",
          "114831.046000",
          "114831.046000",
          "114831.046000",
          "114831.046000",
          "114831.046000",
          "114831.046000",
          "114831.062000",
          "114831.062000",
          "114831.062000",
          "114911.000000",
          "114911.000000",
          "114911.000000",
          "114911.000000",
          "114911.000000",
          "114911.015000",
          "114911.015000",
          "114911.015000",
          "114911.015000",
          "114911.015000",
          "114911.015000",
          "114911.015000",
          "114911.031000",
          "114911.031000",
          "114911.031000",
          "114911.031000",
          "114911.031000",
          "114911.031000",
          "114911.031000",
          "114911.046000",
          "114951.000000",
          "114951.000000",
          "114951.000000",
          "114951.000000",
          "114951.000000",
          "114951.015000",
          "114951.015000",
          "114951.015000",
          "114951.015000",
          "114951.015000",
          "114951.015000",
          "114951.015000",
          "114951.031000",
          "114951.031000",
          "114951.031000",
          "114951.031000",
          "114951.031000",
          "114951.031000",
          "114951.031000",
          "114951.046000",
          "115031.000000",
          "115031.000000",
          "115031.000000",
          "115031.015000",
          "115031.015000",
          "115031.015000",
          "115031.031000",
          "115031.031000",
          "115031.031000",
          "115031.031000",
          "115031.031000",
          "115031.031000",
          "115031.046000",
          "115031.046000",
          "115031.046000",
          "115031.046000",
          "115031.046000",
          "115031.062000",
          "115031.062000",
          "115031.062000",
          "115111.000000",
          "115111.000000",
          "115111.000000",
          "115111.000000",
          "115111.000000",
          "115111.015000",
          "115111.015000",
          "115111.015000",
          "115111.015000",
          "115111.031000",
          "115111.031000",
          "115111.031000",
          "115111.031000",
          "115111.031000",
          "115111.031000",
          "115111.046000",
          "115111.046000",
          "115111.046000",
          "115111.046000",
          "115111.046000",
          "115151.000000",
          "115151.000000",
          "115151.000000",
          "115151.000000",
          "115151.000000",
          "115151.015000",
          "115151.015000",
          "115151.015000",
          "115151.015000",
          "115151.031000",
          "115151.031000",
          "115151.031000",
          "115151.046000",
          "115151.046000",
          "115151.046000",
          "115151.046000",
          "115151.046000",
          "115151.062000",
          "115151.062000",
          "115151.062000",
          "115231.000000",
          "115231.000000",
          "115231.000000",
          "115231.000000",
          "115231.000000",
          "115231.015000",
          "115231.015000",
          "115231.015000",
          "115231.015000",
          "115231.015000",
          "115231.031000",
          "115231.031000",
          "115231.031000",
          "115231.031000",
          "115231.046000",
          "115231.046000",
          "115231.046000",
          "115231.046000",
          "115231.046000",
          "115231.046000",
          "115311.000000",
          "115311.000000",
          "115311.000000",
          "115311.000000",
          "115311.000000",
          "115311.015000",
          "115311.015000",
          "115311.015000",
          "115311.015000",
          "115311.015000",
          "115311.015000",
          "115311.031000",
          "115311.031000",
          "115311.031000",
          "115311.046000",
          "115311.046000",
          "115311.046000",
          "115311.046000",
          "115311.046000",
          "115311.046000",
          "115317.078000",
          "115317.093000",
          "115317.093000",
          "115317.093000"
        ],
        "InstanceNumber": [
          1,
          2,
          3,
          4,
          5,
          6,
          7,
          8,
          9,
          10,
          11,
          12,
          13,
          14,
          15,
          16,
          17,
          18,
          19,
          20,
          21,
          22,
          23,
          24,
          25,
          26,
          27,
          28,
          29,
          30,
          31,
          32,
          33,
          34,
          35,
          36,
          37,
          38,
          39,
          40,
          41,
          42,
          43,
          44,
          45,
          46,
          47,
          48,
          49,
          50,
          51,
          52,
          53,
          54,
          55,
          56,
          57,
          58,
          59,
          60,
          61,
          62,
          63,
          64,
          65,
          66,
          67,
          68,
          69,
          70,
          71,
          72,
          73,
          74,
          75,
          76,
          77,
          78,
          79,
          80,
          81,
          82,
          83,
          84,
          85,
          86,
          87,
          88,
          89,
          90,
          91,
          92,
          93,
          94,
          95,
          96,
          97,
          98,
          99,
          100,
          101,
          102,
          103,
          104,
          105,
          106,
          107,
          108,
          109,
          110,
          111,
          112,
          113,
          114,
          115,
          116,
          117,
          118,
          119,
          120,
          121,
          122,
          123,
          124,
          125,
          126,
          127,
          128,
          129,
          130,
          131,
          132,
          133,
          134,
          135,
          136,
          137,
          138,
          139,
          140,
          141,
          142,
          143,
          144,
          145,
          146,
          147,
          148,
          149,
          150,
          151,
          152,
          153,
          154,
          155,
          156,
          157,
          158,
          159,
          160,
          161,
          162,
          163,
          164
        ],
        "WindowCenter": [
          1070.0,
          1073.0,
          1072.0,
          1068.0,
          1070.0,
          1070.0,
          1068.0,
          1071.0,
          1070.0,
          1070.0,
          1073.0,
          1070.0,
          1069.0,
          1072.0,
          1071.0,
          1068.0,
          1072.0,
          1071.0,
          1068.0,
          1071.0,
          1072.0,
          1069.0,
          1072.0,
          1071.0,
          1069.0,
          1070.0,
          1070.0,
          1068.0,
          1071.0,
          1071.0,
          1069.0,
          1073.0,
          1071.0,
          1072.0,
          1071.0,
          1070.0,
          1072.0,
          1069.0,
          1070.0,
          1070.0,
          1071.0,
          1071.0,
          1072.0,
          1072.0,
          1074.0,
          1071.0,
          1069.0,
          1071.0,
          1070.0,
          1070.0,
          1072.0,
          1069.0,
          1070.0,
          1073.0,
          1070.0,
          1070.0,
          1072.0,
          1069.0,
          1071.0,
          1070.0,
          1070.0,
          1074.0,
          1071.0,
          1071.0,
          1072.0,
          1072.0,
          1072.0,
          1073.0,
          1072.0,
          1072.0,
          1073.0,
          1071.0,
          1071.0,
          1072.0,
          1073.0,
          1073.0,
          1069.0,
          1070.0,
          1074.0,
          1074.0,
          1072.0,
          1072.0,
          1070.0,
          1073.0,
          1072.0,
          1072.0,
          1073.0,
          1074.0,
          1072.0,
          1070.0,
          1073.0,
          1074.0,
          1072.0,
          1071.0,
          1071.0,
          1073.0,
          1071.0,
          1072.0,
          1070.0,
          1070.0,
          1074.0,
          1073.0,
          1073.0,
          1072.0,
          1071.0,
          1074.0,
          1073.0,
          1074.0,
          1076.0,
          1074.0,
          1075.0,
          1076.0,
          1074.0,
          1072.0,
          1072.0,
          1072.0,
          1074.0,
          1075.0,
          1076.0,
          1075.0,
          1073.0,
          1076.0,
          1076.0,
          1074.0,
          1075.0,
          1074.0,
          1075.0,
          1077.0,
          1076.0,
          1075.0,
          1073.0,
          1074.0,
          1073.0,
          1074.0,
          1074.0,
          1073.0,
          1074.0,
          1073.0,
          1074.0,
          1075.0,
          1073.0,
          1075.0,
          1075.0,
          1074.0,
          1073.0,
          1073.0,
          1074.0,
          1072.0,
          1075.0,
          1074.0,
          1072.0,
          1074.0,
          1074.0,
          1072.0,
          1075.0,
          1073.0,
          1074.0,
          1075.0,
          1073.0,
          1073.0,
          1073.0,
          1075.0,
          1074.0,
          1073.0
        ],
        "WindowWidth": [
          2901.0,
          2910.0,
          2900.0,
          2894.0,
          2902.0,
          2896.0,
          2890.0,
          2906.0,
          2900.0,
          2901.0,
          2909.0,
          2900.0,
          2899.0,
          2908.0,
          2900.0,
          2893.0,
          2907.0,
          2902.0,
          2893.0,
          2907.0,
          2903.0,
          2895.0,
          2906.0,
          2899.0,
          2891.0,
          2904.0,
          2900.0,
          2898.0,
          2908.0,
          2900.0,
          2897.0,
          2912.0,
          2903.0,
          2905.0,
          2907.0,
          2898.0,
          2910.0,
          2900.0,
          2900.0,
          2900.0,
          2892.0,
          2906.0,
          2904.0,
          2906.0,
          2918.0,
          2902.0,
          2898.0,
          2906.0,
          2899.0,
          2900.0,
          2908.0,
          2900.0,
          2905.0,
          2910.0,
          2897.0,
          2903.0,
          2908.0,
          2895.0,
          2904.0,
          2900.0,
          2898.0,
          2910.0,
          2900.0,
          2907.0,
          2907.0,
          2903.0,
          2911.0,
          2907.0,
          2910.0,
          2910.0,
          2911.0,
          2908.0,
          2900.0,
          2910.0,
          2907.0,
          2905.0,
          2895.0,
          2901.0,
          2912.0,
          2903.0,
          2909.0,
          2904.0,
