{
  "aor": 0.004239268292682927,
  "aqi": 0.011115628231707319,
  "bids_meta": {
    "AcquisitionMatrixPE": 96,
    "AcquisitionNumber": 1,
    "AcquisitionTime": "10:58:39.772500",
    "BandwidthPerPixelPhaseEncode": 52.083,
    "BaseResolution": 96,
    "BodyPartExamined": "HEAD",
    "ConversionSoftware": "dcm2niix",
    "ConversionSoftwareVersion": "v1.0.20180622 GCC6.3.0",
    "DerivedVendorReportedEchoSpacing": 0.000600004,
    "DeviceSerialNumber": "18926",
    "DwellTime": 2.6e-06,
    "EchoTime": 0.025,
    "EffectiveEchoSpacing": 0.000200001,
    "FlipAngle": 50,
    "ImageOrientationPatientDICOM": [
      0.999992,
      0.00067012,
      0.00404905,
      2.11009e-10,
      0.98658,
      -0.16328
    ],
    "ImageType": [
      "ORIGINAL",
      "PRIMARY",
      "M",
      "ND",
      "ECHO",
      "00",
      "MOSAIC"
    ],
    "InPlanePhaseEncodingDirectionDICOM": "ROW",
    "InstitutionName": "NIMH",
    "InstitutionalDepartmentName": "Department",
    "MRAcquisitionType": "2D",
    "MagneticFieldStrength": 6.98,
    "Manufacturer": "Siemens",
    "ManufacturersModelName": "Investigational_Device_7T",
    "Modality": "MR",
    "ParallelReductionFactorInPlane": 3,
    "PartialFourier": 1,
    "PatientPosition": "HFS",
    "PercentPhaseFOV": 100,
    "PhaseEncodingDirection": "i",
    "PhaseEncodingSteps": 94,
    "PhaseResolution": 1,
    "PixelBandwidth": 2003,
    "ProcedureStepDescription": "MRI_Procedure_Limited",
    "ProtocolName": "NIH_EPI_2.0iso_TR2_Run06",
    "PulseSequenceDetails": "%CustomerSeq%_inati_nih_epi",
    "ReceiveCoilName": "32Ch_Head_7T",
    "ReconMatrixPE": 96,
    "RepetitionTime": 2,
    "SAR": 0.0921352,
    "ScanningSequence": "EP",
    "SequenceName": "epfid2d1_96",
    "SequenceVariant": "SK",
    "SeriesDescription": "NIH_EPI_2.0iso_TR2_Run06",
    "SeriesNumber": 10,
    "ShimSetting": [
      -125,
      144,
      1430,
      2389,
      -185,
      -70,
      136,
      -236
    ],
    "SliceThickness": 2,
    "SliceTiming": [
      1.0025,
      0,
      1.04,
      0.0375,
      1.0775,
      0.075,
      1.115,
      0.11,
      1.1525,
      0.1475,
      1.19,
      0.185,
      1.2275,
      0.2225,
      1.2625,
      0.26,
      1.3,
      0.2975,
      1.3375,
      0.335,
      1.375,
      0.3725,
      1.4125,
      0.4075,
      1.45,
      0.445,
      1.4875,
      0.4825,
      1.525,
      0.52,
      1.56,
      0.5575,
      1.5975,
      0.595,
      1.635,
      0.6325,
      1.6725,
      0.67,
      1.71,
      0.705,
      1.7475,
      0.7425,
      1.785,
      0.78,
      1.8225,
      0.8175,
      1.8575,
      0.855,
      1.895,
      0.8925,
      1.9325,
      0.93,
      1.97,
      0.965
    ],
    "SoftwareVersions": "syngo_MR_B17",
    "SpacingBetweenSlices": 2,
    "StationName": "FMRIFD7T",
    "TaskName": "FullFovNoAttentionTask",
    "TotalReadoutTime": 0.0190001,
    "TxRefAmp": 303,
    "dataset": "ds001555",
    "dcmmeta_affine": [
      [
        -1.9999831914901733,
        4.2201880878778297e-10,
        0.008208253420889378,
        95.76705169677734
      ],
      [
        -0.0013402394251897931,
        1.973159670829773,
        -0.32655632495880127,
        -63.118167877197266
      ],
      [
        0.008098097518086433,
        0.32655906677246094,
        1.9731431007385254,
        -38.87153625488281
      ],
      [
        0.0,
        0.0,
        0.0,
        1.0
      ]
    ],
    "dcmmeta_reorient_transform": [
      [
        0.0,
        -1.0,
        0.0,
        95.0
      ],
      [
        1.0,
        0.0,
        0.0,
        0.0
      ],
      [
        0.0,
        0.0,
        1.0,
        0.0
      ],
      [
        0.0,
        0.0,
        0.0,
        1.0
      ]
    ],
    "dcmmeta_shape": [
      96,
      96,
      54,
      164
    ],
    "dcmmeta_slice_dim": 2,
    "dcmmeta_version": 0.6,
    "global": {
      "const": {
        "AcquisitionMatrix": [
          0,
          96,
          96,
          0
        ],
        "Allergies": "No Known Allergies",
        "AngioFlag": "N",
        "BitsAllocated": 16,
        "BitsStored": 12,
        "BodyPartExamined": "HEAD",
        "Columns": 768,
        "EchoNumbers": 1,
        "EchoTime": 25.0,
        "EchoTrainLength": 1,
        "FlipAngle": 50.0,
        "HighBit": 11,
        "ImageOrientationPatient": [
          0.99999157803662,
          0.00067011969073,
          0.00404904870684,
          2.110094e-10,
          0.98657984636313,
          -0.1632795356133
        ],
        "ImagePositionPatient": [
          -767.761392775,
          -787.76398131462,
          99.154463849561
        ],
        "ImageType": [
          "ORIGINAL",
          "PRIMARY",
          "M",
          "ND",
          "ECHO_00",
          "MOSAIC"
        ],
        "ImagedNucleus": "1H",
        "ImagingFrequency": 297.204995,
        "InPlanePhaseEncodingDirection": "ROW",
        "LargestImagePixelValue": 4095,
        "MRAcquisitionType": "2D",
        "MagneticFieldStrength": 6.98,
        "Manufacturer": "SIEMENS",
        "ManufacturerModelName": "Investigational_Device_7T",
        "Modality": "MR",
        "NumberOfAverages": 1.0,
        "NumberOfPhaseEncodingSteps": 94,
        "PercentPhaseFieldOfView": 100.0,
        "PercentSampling": 100.0,
        "PerformedProcedureStepStartTime": "101043.468000",
        "PhotometricInterpretation": "MONOCHROME2",
        "PixelBandwidth": 2003.0,
        "PixelRepresentation": 0,
        "PixelSpacing": [
          2.0,
          2.0
        ],
        "PositionReferenceIndicator": "",
        "ProcedureCodeSequence": [
          {
            "CodeMeaning": "MRI Procedure Limited",
            "CodeValue": "MI01491",
            "CodingSchemeDesignator": "USA Standard",
            "ContextIdentifier": "4000109575"
          }
        ],
        "ProtocolName": "NIH_EPI_2.0iso_TR2_Run06",
        "ReferencedStudySequence": [
          {
            "ReferencedSOPClassUID": "1.2.840.10008.3.1.2.3.1",
            "ReferencedSOPInstanceUID": "1.2.840.113564.9.1.2723958737.61.2.5000075337"
          }
        ],
        "RepetitionTime": 2000.0,
        "RequestedProcedureCodeSequence": [
          {
            "CodeMeaning": "MRI Procedure Limited",
            "CodeValue": "MI01491",
            "CodingSchemeDesignator": "USA Standard",
            "ContextIdentifier": "4000109575"
          }
        ],
        "RequestingService": "MHED",
        "Rows": 768,
        "SAR": 0.09213524071949,
        "SamplesPerPixel": 1,
        "ScanningSequence": "EP",
        "SequenceName": "epfid2d1_96",
        "SequenceVariant": "SK",
        "SeriesDescription": "NIH_EPI_2.0iso_TR2_Run06",
        "SeriesNumber": 10,
        "SliceLocation": -27.650691900607,
        "SliceThickness": 2.0,
        "SmallestImagePixelValue": 0,
        "SoftwareVersions": "syngo MR B17",
        "SpacingBetweenSlices": 1.9999999799801,
        "TransmitCoilName": "32Ch_Head_7T",
        "VariableFlipAngleFlag": "N",
        "WindowCenterWidthExplanation": "Algo1",
        "dBdt": 0.0
      },
      "slices": {}
    },
    "modality": "bold",
    "run_id": 7,
    "session_id": "04",
    "subject_id": "002",
    "task_id": "FullFovNoAttentionTask",
    "time": {
      "samples": {
        "AcquisitionNumber": [
          1,
          2,
          3,
          4,
          5,
          6,
          7,
          8,
          9,
          10,
          11,
          12,
          13,
          14,
          15,
          16,
          17,
          18,
          19,
          20,
          21,
          22,
          23,
          24,
          25,
          26,
          27,
          28,
          29,
          30,
          31,
          32,
          33,
          34,
          35,
          36,
          37,
          38,
          39,
          40,
          41,
          42,
          43,
          44,
          45,
          46,
          47,
          48,
          49,
          50,
          51,
          52,
          53,
          54,
          55,
          56,
          57,
          58,
          59,
          60,
          61,
          62,
          63,
          64,
          65,
          66,
          67,
          68,
          69,
          70,
          71,
          72,
          73,
          74,
          75,
          76,
          77,
          78,
          79,
          80,
          81,
          82,
          83,
          84,
          85,
          86,
          87,
          88,
          89,
          90,
          91,
          92,
          93,
          94,
          95,
          96,
          97,
          98,
          99,
          100,
          101,
          102,
          103,
          104,
          105,
          106,
          107,
          108,
          109,
          110,
          111,
          112,
          113,
          114,
          115,
          116,
          117,
          118,
          119,
          120,
          121,
          122,
          123,
          124,
          125,
          126,
          127,
          128,
          129,
          130,
          131,
          132,
          133,
          134,
          135,
          136,
          137,
          138,
          139,
          140,
          141,
          142,
          143,
          144,
          145,
          146,
          147,
          148,
          149,
          150,
          151,
          152,
          153,
          154,
          155,
          156,
          157,
          158,
          159,
          160,
          161,
          162,
          163,
          164
        ],
        "AcquisitionTime": [
          "105839.772500",
          "105843.790000",
          "105845.797500",
          "105847.805000",
          "105849.812500",
          "105851.822500",
          "105853.830000",
          "105855.837500",
          "105857.845000",
          "105859.852500",
          "105901.862500",
          "105903.870000",
          "105905.877500",
          "105907.885000",
          "105909.895000",
          "105911.902500",
          "105913.910000",
          "105915.917500",
          "105917.925000",
          "105919.935000",
          "105921.942500",
          "105923.950000",
          "105925.957500",
          "105927.965000",
          "105929.975000",
          "105931.982500",
          "105933.990000",
          "105935.997500",
          "105938.007500",
          "105940.015000",
          "105942.022500",
          "105944.030000",
          "105946.037500",
          "105948.047500",
          "105950.055000",
          "105952.062500",
          "105954.070000",
          "105956.077500",
          "105958.087500",
          "110000.095000",
          "110002.102500",
          "110004.110000",
          "110006.117500",
          "110008.127500",
          "110010.135000",
          "110012.142500",
          "110014.150000",
          "110016.160000",
          "110018.167500",
          "110020.175000",
          "110022.182500",
          "110024.190000",
          "110026.200000",
          "110028.207500",
          "110030.215000",
          "110032.222500",
          "110034.230000",
          "110036.240000",
          "110038.247500",
          "110040.255000",
          "110042.262500",
          "110044.272500",
          "110046.280000",
          "110048.287500",
          "110050.295000",
          "110052.302500",
          "110054.312500",
          "110056.320000",
          "110058.327500",
          "110100.335000",
          "110102.342500",
          "110104.352500",
          "110106.360000",
          "110108.367500",
          "110110.375000",
          "110112.385000",
          "110114.392500",
          "110116.400000",
          "110118.407500",
          "110120.415000",
          "110122.425000",
          "110124.432500",
          "110126.440000",
          "110128.447500",
          "110130.455000",
          "110132.465000",
          "110134.472500",
          "110136.480000",
          "110138.487500",
          "110140.497500",
          "110142.505000",
          "110144.512500",
          "110146.520000",
          "110148.527500",
          "110150.537500",
          "110152.545000",
          "110154.552500",
          "110156.560000",
          "110158.567500",
          "110200.577500",
          "110202.585000",
          "110204.592500",
          "110206.600000",
          "110208.607500",
          "110210.617500",
          "110212.625000",
          "110214.632500",
          "110216.640000",
          "110218.650000",
          "110220.657500",
          "110222.665000",
          "110224.672500",
          "110226.680000",
          "110228.690000",
          "110230.697500",
          "110232.705000",
          "110234.712500",
          "110236.720000",
          "110238.730000",
          "110240.737500",
          "110242.745000",
          "110244.752500",
          "110246.762500",
          "110248.770000",
          "110250.777500",
          "110252.785000",
          "110254.792500",
          "110256.802500",
          "110258.810000",
          "110300.817500",
          "110302.825000",
          "110304.832500",
          "110306.842500",
          "110308.850000",
          "110310.857500",
          "110312.865000",
          "110314.875000",
          "110316.882500",
          "110318.890000",
          "110320.897500",
          "110322.905000",
          "110324.915000",
          "110326.922500",
          "110328.930000",
          "110330.937500",
          "110332.945000",
          "110334.955000",
          "110336.962500",
          "110338.970000",
          "110340.977500",
          "110342.985000",
          "110344.995000",
          "110347.002500",
          "110349.010000",
          "110351.017500",
          "110353.027500",
          "110355.035000",
          "110357.042500",
          "110359.050000",
          "110401.057500",
          "110403.067500",
          "110405.075000",
          "110407.082500",
          "110409.090000"
        ],
        "ContentTime": [
          "105912.140000",
          "105912.140000",
          "105912.140000",
          "105912.140000",
          "105912.156000",
          "105912.156000",
          "105912.156000",
          "105912.156000",
          "105912.156000",
          "105912.156000",
          "105912.156000",
          "105912.171000",
          "105912.171000",
          "105912.171000",
          "105952.125000",
          "105952.125000",
          "105952.125000",
          "105952.125000",
          "105952.125000",
          "105952.140000",
          "105952.140000",
          "105952.140000",
          "105952.140000",
          "105952.140000",
          "105952.140000",
          "105952.140000",
          "105952.156000",
          "105952.156000",
          "105952.156000",
          "105952.156000",
          "105952.156000",
          "105952.156000",
          "105952.171000",
          "105952.171000",
          "110032.125000",
          "110032.125000",
          "110032.125000",
          "110032.125000",
          "110032.140000",
          "110032.140000",
          "110032.140000",
          "110032.140000",
          "110032.156000",
          "110032.156000",
          "110032.156000",
          "110032.156000",
          "110032.156000",
          "110032.171000",
          "110032.171000",
          "110032.171000",
          "110032.171000",
          "110032.171000",
          "110032.171000",
          "110032.171000",
          "110032.187000",
          "110112.125000",
          "110112.125000",
          "110112.140000",
          "110112.140000",
          "110112.140000",
          "110112.140000",
          "110112.140000",
          "110112.140000",
          "110112.140000",
          "110112.156000",
          "110112.156000",
          "110112.156000",
          "110112.156000",
          "110112.156000",
          "110112.171000",
          "110112.171000",
          "110112.171000",
          "110112.171000",
          "110112.171000",
          "110112.171000",
          "110212.125000",
          "110212.125000",
          "110212.125000",
          "110212.125000",
          "110212.125000",
          "110212.140000",
          "110212.140000",
          "110212.140000",
          "110212.140000",
          "110212.140000",
          "110212.140000",
          "110212.140000",
          "110212.156000",
          "110212.156000",
          "110212.156000",
          "110212.156000",
          "110212.156000",
          "110212.156000",
          "110212.156000",
          "110212.171000",
          "110212.171000",
          "110212.171000",
          "110212.171000",
          "110212.171000",
          "110212.171000",
          "110212.187000",
          "110212.187000",
          "110212.187000",
          "110212.187000",
          "110212.187000",
          "110252.125000",
          "110252.125000",
          "110252.125000",
          "110252.125000",
          "110252.125000",
          "110252.140000",
          "110252.140000",
          "110252.140000",
          "110252.140000",
          "110252.140000",
          "110252.156000",
          "110252.156000",
          "110252.156000",
          "110252.156000",
          "110252.156000",
          "110252.171000",
          "110252.171000",
          "110252.171000",
          "110252.171000",
          "110252.171000",
          "110332.125000",
          "110332.125000",
          "110332.125000",
          "110332.125000",
          "110332.125000",
          "110332.140000",
          "110332.140000",
          "110332.140000",
          "110332.140000",
          "110332.156000",
          "110332.156000",
          "110332.156000",
          "110332.156000",
          "110332.156000",
          "110332.171000",
          "110332.171000",
          "110332.171000",
          "110332.171000",
          "110332.171000",
          "110332.187000",
          "110410.046000",
          "110410.046000",
          "110410.046000",
          "110410.062000",
          "110410.062000",
          "110410.078000",
          "110410.078000",
          "110410.078000",
          "110410.078000",
          "110410.078000",
          "110410.078000",
          "110410.093000",
          "110410.093000",
          "110410.093000",
          "110410.093000",
          "110410.093000",
          "110410.093000",
          "110410.093000",
          "110410.109000"
        ],
        "InstanceCreationTime": [
          "105912.140000",
          "105912.140000",
          "105912.140000",
          "105912.140000",
          "105912.156000",
          "105912.156000",
          "105912.156000",
          "105912.156000",
          "105912.156000",
          "105912.156000",
          "105912.156000",
          "105912.171000",
          "105912.171000",
          "105912.171000",
          "105952.125000",
          "105952.125000",
          "105952.125000",
          "105952.125000",
          "105952.125000",
          "105952.140000",
          "105952.140000",
          "105952.140000",
          "105952.140000",
          "105952.140000",
          "105952.140000",
          "105952.140000",
          "105952.156000",
          "105952.156000",
          "105952.156000",
          "105952.156000",
          "105952.156000",
          "105952.156000",
          "105952.171000",
          "105952.171000",
          "110032.125000",
          "110032.125000",
          "110032.125000",
          "110032.125000",
          "110032.140000",
          "110032.140000",
          "110032.140000",
          "110032.140000",
          "110032.156000",
          "110032.156000",
          "110032.156000",
          "110032.156000",
          "110032.156000",
          "110032.171000",
          "110032.171000",
          "110032.171000",
          "110032.171000",
          "110032.171000",
          "110032.171000",
          "110032.171000",
          "110032.187000",
          "110112.125000",
          "110112.125000",
          "110112.140000",
          "110112.140000",
          "110112.140000",
          "110112.140000",
          "110112.140000",
          "110112.140000",
          "110112.140000",
          "110112.156000",
          "110112.156000",
          "110112.156000",
          "110112.156000",
          "110112.156000",
          "110112.171000",
          "110112.171000",
          "110112.171000",
          "110112.171000",
          "110112.171000",
          "110112.171000",
          "110212.125000",
          "110212.125000",
          "110212.125000",
          "110212.125000",
          "110212.125000",
          "110212.140000",
          "110212.140000",
          "110212.140000",
          "110212.140000",
          "110212.140000",
          "110212.140000",
          "110212.140000",
          "110212.156000",
          "110212.156000",
          "110212.156000",
          "110212.156000",
          "110212.156000",
          "110212.156000",
          "110212.156000",
          "110212.171000",
          "110212.171000",
          "110212.171000",
          "110212.171000",
          "110212.171000",
          "110212.171000",
          "110212.187000",
          "110212.187000",
          "110212.187000",
          "110212.187000",
          "110212.187000",
          "110252.125000",
          "110252.125000",
          "110252.125000",
          "110252.125000",
          "110252.125000",
          "110252.140000",
          "110252.140000",
          "110252.140000",
          "110252.140000",
          "110252.140000",
          "110252.156000",
          "110252.156000",
          "110252.156000",
          "110252.156000",
          "110252.156000",
          "110252.171000",
          "110252.171000",
          "110252.171000",
          "110252.171000",
          "110252.171000",
          "110332.125000",
          "110332.125000",
          "110332.125000",
          "110332.125000",
          "110332.125000",
          "110332.140000",
          "110332.140000",
          "110332.140000",
          "110332.140000",
          "110332.156000",
          "110332.156000",
          "110332.156000",
          "110332.156000",
          "110332.156000",
          "110332.171000",
          "110332.171000",
          "110332.171000",
          "110332.171000",
          "110332.171000",
          "110332.187000",
          "110410.046000",
          "110410.046000",
          "110410.046000",
          "110410.062000",
          "110410.062000",
          "110410.078000",
          "110410.078000",
          "110410.078000",
          "110410.078000",
          "110410.078000",
          "110410.078000",
          "110410.093000",
          "110410.093000",
          "110410.093000",
          "110410.093000",
          "110410.093000",
          "110410.093000",
          "110410.093000",
          "110410.109000"
        ],
        "InstanceNumber": [
          1,
          2,
          3,
          4,
          5,
          6,
          7,
          8,
          9,
          10,
          11,
          12,
          13,
          14,
          15,
          16,
          17,
          18,
          19,
          20,
          21,
          22,
          23,
          24,
          25,
          26,
          27,
          28,
          29,
          30,
          31,
          32,
          33,
          34,
          35,
          36,
          37,
          38,
          39,
          40,
          41,
          42,
          43,
          44,
          45,
          46,
          47,
          48,
          49,
          50,
          51,
          52,
          53,
          54,
          55,
          56,
          57,
          58,
          59,
          60,
          61,
          62,
          63,
          64,
          65,
          66,
          67,
          68,
          69,
          70,
          71,
          72,
          73,
          74,
          75,
          76,
          77,
          78,
          79,
          80,
          81,
          82,
          83,
          84,
          85,
          86,
          87,
          88,
          89,
          90,
          91,
          92,
          93,
          94,
          95,
          96,
          97,
          98,
          99,
          100,
          101,
          102,
          103,
          104,
          105,
          106,
          107,
          108,
          109,
          110,
          111,
          112,
          113,
          114,
          115,
          116,
          117,
          118,
          119,
          120,
          121,
          122,
          123,
          124,
          125,
          126,
          127,
          128,
          129,
          130,
          131,
          132,
          133,
          134,
          135,
          136,
          137,
          138,
          139,
          140,
          141,
          142,
          143,
          144,
          145,
          146,
          147,
          148,
          149,
          150,
          151,
          152,
          153,
          154,
          155,
          156,
          157,
          158,
          159,
          160,
          161,
          162,
          163,
          164
        ],
        "WindowCenter": [
          1066.0,
          1067.0,
          1069.0,
          1068.0,
          1069.0,
          1070.0,
          1069.0,
          1071.0,
          1067.0,
          1065.0,
          1067.0,
          1066.0,
          1065.0,
          1067.0,
          1066.0,
          1066.0,
          1068.0,
          1071.0,
          1070.0,
          1068.0,
          1071.0,
          1068.0,
          1067.0,
          1067.0,
          1069.0,
          1067.0,
          1068.0,
          1068.0,
          1070.0,
          1070.0,
          1067.0,
          1068.0,
          1069.0,
          1067.0,
          1067.0,
          1067.0,
          1069.0,
          1069.0,
          1068.0,
          1068.0,
          1065.0,
          1068.0,
          1067.0,
          1068.0,
          1067.0,
          1068.0,
          1068.0,
          1066.0,
          1068.0,
          1069.0,
          1065.0,
          1066.0,
          1064.0,
          1065.0,
          1063.0,
          1064.0,
          1064.0,
          1065.0,
          1067.0,
          1068.0,
          1064.0,
          1067.0,
          1067.0,
          1064.0,
          1064.0,
          1066.0,
          1067.0,
          1064.0,
          1066.0,
          1068.0,
          1065.0,
          1065.0,
          1064.0,
          1063.0,
          1064.0,
          1064.0,
          1065.0,
          1066.0,
          1067.0,
          1070.0,
          1069.0,
          1067.0,
          1066.0,
          1066.0,
          1066.0,
          1066.0,
          1066.0,
          1066.0,
          1068.0,
          1066.0,
          1069.0,
          1072.0,
          1068.0,
          1066.0,
          1066.0,
          1066.0,
          1066.0,
          1067.0,
          1068.0,
          1066.0,
          1066.0,
          1067.0,
          1068.0,
          1066.0,
          1067.0,
          1069.0,
          1067.0,
          1066.0,
          1069.0,
          1068.0,
          1068.0,
          1067.0,
          1067.0,
          1069.0,
          1067.0,
          1071.0,
          1069.0,
          1067.0,
          1069.0,
          1069.0,
          1069.0,
          1068.0,
          1069.0,
          1070.0,
          1071.0,
          1070.0,
          1070.0,
          1067.0,
          1071.0,
          1071.0,
          1071.0,
          1070.0,
          1067.0,
          1071.0,
          1070.0,
          1070.0,
          1068.0,
          1071.0,
          1072.0,
          1069.0,
          1068.0,
          1065.0,
          1068.0,
          1069.0,
          1068.0,
          1066.0,
          1068.0,
          1069.0,
          1069.0,
          1070.0,
          1069.0,
          1073.0,
          1070.0,
          1072.0,
          1069.0,
          1068.0,
          1067.0,
          1067.0,
          1069.0,
          1066.0,
          1067.0,
          1069.0,
          1072.0,
          1070.0
        ],
        "WindowWidth": [
          2892.0,
          2893.0,
          2896.0,
          2895.0,
          2898.0,
          2910.0,
          2910.0,
          2911.0,
          2891.0,
          2881.0,
          2895.0,
          2889.0,
          2888.0,
          2896.0,
          2888.0,
          2892.0,
          2900.0,
          2899.0,
          2899.0,
          2897.0,
          2905.0,
          2894.0,
          2886.0,
          2898.0,
          2890.0,
          2892.0,
          2891.0,
          2897.0,
          2905.0,
          2900.0,
          2887.0,
          2895.0,
          2892.0,
          2888.0,
          2887.0,
          2894.0,
          2903.0,
          2896.0,
          2901.0,
          2889.0,
          2888.0,
          2898.0,
          2891.0,
          2897.0,
          2898.0,
          2901.0,
          2894.0,
          2890.0,
          2898.0,
          2904.0,
          2896.0,
          2894.0,
          2874.0,
          2879.0,
          2873.0,
          2876.0,
          2890.0,
          2883.0,
          2894.0,
          2888.0,
          2883.0,
          2901.0,
          2892.0,
          2879.0,
          2885.0,
          2890.0,
          2887.0,
          2881.0,
          2902.0,
          2896.0,
          2887.0,
          2896.0,
          2886.0,
          2878.0,
          2894.0,
          2886.0,
          2888.0,
          2888.0,
          2895.0,
          2910.0,
          2902.0,
          2894.0,
