{
  "aor": 0.0029251219512195126,
  "aqi": 0.010768357621951219,
  "bids_meta": {
    "AcquisitionMatrixPE": 96,
    "AcquisitionNumber": 1,
    "AcquisitionTime": "10:39:52.982500",
    "BandwidthPerPixelPhaseEncode": 52.083,
    "BaseResolution": 96,
    "BodyPartExamined": "HEAD",
    "ConversionSoftware": "dcm2niix",
    "ConversionSoftwareVersion": "v1.0.20180622 GCC6.3.0",
    "DerivedVendorReportedEchoSpacing": 0.000600004,
    "DeviceSerialNumber": "18926",
    "DwellTime": 2.6e-06,
    "EchoTime": 0.025,
    "EffectiveEchoSpacing": 0.000200001,
    "FlipAngle": 50,
    "ImageOrientationPatientDICOM": [
      0.999992,
      0.00067012,
      0.00404905,
      2.11009e-10,
      0.98658,
      -0.16328
    ],
    "ImageType": [
      "ORIGINAL",
      "PRIMARY",
      "M",
      "ND",
      "ECHO",
      "00",
      "MOSAIC"
    ],
    "InPlanePhaseEncodingDirectionDICOM": "ROW",
    "InstitutionName": "NIMH",
    "InstitutionalDepartmentName": "Department",
    "MRAcquisitionType": "2D",
    "MagneticFieldStrength": 6.98,
    "Manufacturer": "Siemens",
    "ManufacturersModelName": "Investigational_Device_7T",
    "Modality": "MR",
    "ParallelReductionFactorInPlane": 3,
    "PartialFourier": 1,
    "PatientPosition": "HFS",
    "PercentPhaseFOV": 100,
    "PhaseEncodingDirection": "i",
    "PhaseEncodingSteps": 94,
    "PhaseResolution": 1,
    "PixelBandwidth": 2003,
    "ProcedureStepDescription": "MRI_Procedure_Limited",
    "ProtocolName": "NIH_EPI_2.0iso_TR2_Run03",
    "PulseSequenceDetails": "%CustomerSeq%_inati_nih_epi",
    "ReceiveCoilName": "32Ch_Head_7T",
    "ReconMatrixPE": 96,
    "RepetitionTime": 2,
    "SAR": 0.0921352,
    "ScanningSequence": "EP",
    "SequenceName": "epfid2d1_96",
    "SequenceVariant": "SK",
    "SeriesDescription": "NIH_EPI_2.0iso_TR2_Run03",
    "SeriesNumber": 7,
    "ShimSetting": [
      -125,
      144,
      1430,
      2389,
      -185,
      -70,
      136,
      -236
    ],
    "SliceThickness": 2,
    "SliceTiming": [
      1.005,
      0,
      1.04,
      0.0375,
      1.0775,
      0.075,
      1.115,
      0.1125,
      1.1525,
      0.15,
      1.19,
      0.185,
      1.2275,
      0.2225,
      1.265,
      0.26,
      1.3025,
      0.2975,
      1.3375,
      0.335,
      1.375,
      0.3725,
      1.4125,
      0.41,
      1.45,
      0.4475,
      1.4875,
      0.4825,
      1.525,
      0.52,
      1.5625,
      0.5575,
      1.6,
      0.595,
      1.635,
      0.6325,
      1.6725,
      0.67,
      1.71,
      0.7075,
      1.7475,
      0.7425,
      1.785,
      0.78,
      1.8225,
      0.8175,
      1.86,
      0.855,
      1.8975,
      0.8925,
      1.9325,
      0.93,
      1.97,
      0.9675
    ],
    "SoftwareVersions": "syngo_MR_B17",
    "SpacingBetweenSlices": 2,
    "StationName": "FMRIFD7T",
    "TaskName": "FullFovNoAttentionTask",
    "TotalReadoutTime": 0.0190001,
    "TxRefAmp": 303,
    "dataset": "ds001555",
    "dcmmeta_affine": [
      [
        -1.9999831914901733,
        4.2201880878778297e-10,
        0.008208253420889378,
        95.76705169677734
      ],
      [
        -0.0013402394251897931,
        1.973159670829773,
        -0.32655632495880127,
        -63.118167877197266
      ],
      [
        0.008098097518086433,
        0.32655906677246094,
        1.9731431007385254,
        -38.87153625488281
      ],
      [
        0.0,
        0.0,
        0.0,
        1.0
      ]
    ],
    "dcmmeta_reorient_transform": [
      [
        0.0,
        -1.0,
        0.0,
        95.0
      ],
      [
        1.0,
        0.0,
        0.0,
        0.0
      ],
      [
        0.0,
        0.0,
        1.0,
        0.0
      ],
      [
        0.0,
        0.0,
        0.0,
        1.0
      ]
    ],
    "dcmmeta_shape": [
      96,
      96,
      54,
      164
    ],
    "dcmmeta_slice_dim": 2,
    "dcmmeta_version": 0.6,
    "global": {
      "const": {
        "AcquisitionMatrix": [
          0,
          96,
          96,
          0
        ],
        "Allergies": "No Known Allergies",
        "AngioFlag": "N",
        "BitsAllocated": 16,
        "BitsStored": 12,
        "BodyPartExamined": "HEAD",
        "Columns": 768,
        "EchoNumbers": 1,
        "EchoTime": 25.0,
        "EchoTrainLength": 1,
        "FlipAngle": 50.0,
        "HighBit": 11,
        "ImageOrientationPatient": [
          0.99999157803662,
          0.00067011969073,
          0.00404904870684,
          2.110094e-10,
          0.98657984636313,
          -0.1632795356133
        ],
        "ImagePositionPatient": [
          -767.761392775,
          -787.76398131462,
          99.154463849561
        ],
        "ImageType": [
          "ORIGINAL",
          "PRIMARY",
          "M",
          "ND",
          "ECHO_00",
          "MOSAIC"
        ],
        "ImagedNucleus": "1H",
        "ImagingFrequency": 297.204928,
        "InPlanePhaseEncodingDirection": "ROW",
        "LargestImagePixelValue": 4095,
        "MRAcquisitionType": "2D",
        "MagneticFieldStrength": 6.98,
        "Manufacturer": "SIEMENS",
        "ManufacturerModelName": "Investigational_Device_7T",
        "Modality": "MR",
        "NumberOfAverages": 1.0,
        "NumberOfPhaseEncodingSteps": 94,
        "PercentPhaseFieldOfView": 100.0,
        "PercentSampling": 100.0,
        "PerformedProcedureStepStartTime": "101043.468000",
        "PhotometricInterpretation": "MONOCHROME2",
        "PixelBandwidth": 2003.0,
        "PixelRepresentation": 0,
        "PixelSpacing": [
          2.0,
          2.0
        ],
        "PositionReferenceIndicator": "",
        "ProcedureCodeSequence": [
          {
            "CodeMeaning": "MRI Procedure Limited",
            "CodeValue": "MI01491",
            "CodingSchemeDesignator": "USA Standard",
            "ContextIdentifier": "4000109575"
          }
        ],
        "ProtocolName": "NIH_EPI_2.0iso_TR2_Run03",
        "ReferencedStudySequence": [
          {
            "ReferencedSOPClassUID": "1.2.840.10008.3.1.2.3.1",
            "ReferencedSOPInstanceUID": "1.2.840.113564.9.1.2723958737.61.2.5000075337"
          }
        ],
        "RepetitionTime": 2000.0,
        "RequestedProcedureCodeSequence": [
          {
            "CodeMeaning": "MRI Procedure Limited",
            "CodeValue": "MI01491",
            "CodingSchemeDesignator": "USA Standard",
            "ContextIdentifier": "4000109575"
          }
        ],
        "RequestingService": "MHED",
        "Rows": 768,
        "SAR": 0.09213524071949,
        "SamplesPerPixel": 1,
        "ScanningSequence": "EP",
        "SequenceName": "epfid2d1_96",
        "SequenceVariant": "SK",
        "SeriesDescription": "NIH_EPI_2.0iso_TR2_Run03",
        "SeriesNumber": 7,
        "SliceLocation": -27.650691900607,
        "SliceThickness": 2.0,
        "SmallestImagePixelValue": 0,
        "SoftwareVersions": "syngo MR B17",
        "SpacingBetweenSlices": 1.9999999799801,
        "TransmitCoilName": "32Ch_Head_7T",
        "VariableFlipAngleFlag": "N",
        "WindowCenterWidthExplanation": "Algo1",
        "dBdt": 0.0
      },
      "slices": {}
    },
    "modality": "bold",
    "run_id": 4,
    "session_id": "04",
    "subject_id": "002",
    "task_id": "FullFovNoAttentionTask",
    "time": {
      "samples": {
        "AcquisitionNumber": [
          1,
          2,
          3,
          4,
          5,
          6,
          7,
          8,
          9,
          10,
          11,
          12,
          13,
          14,
          15,
          16,
          17,
          18,
          19,
          20,
          21,
          22,
          23,
          24,
          25,
          26,
          27,
          28,
          29,
          30,
          31,
          32,
          33,
          34,
          35,
          36,
          37,
          38,
          39,
          40,
          41,
          42,
          43,
          44,
          45,
          46,
          47,
          48,
          49,
          50,
          51,
          52,
          53,
          54,
          55,
          56,
          57,
          58,
          59,
          60,
          61,
          62,
          63,
          64,
          65,
          66,
          67,
          68,
          69,
          70,
          71,
          72,
          73,
          74,
          75,
          76,
          77,
          78,
          79,
          80,
          81,
          82,
          83,
          84,
          85,
          86,
          87,
          88,
          89,
          90,
          91,
          92,
          93,
          94,
          95,
          96,
          97,
          98,
          99,
          100,
          101,
          102,
          103,
          104,
          105,
          106,
          107,
          108,
          109,
          110,
          111,
          112,
          113,
          114,
          115,
          116,
          117,
          118,
          119,
          120,
          121,
          122,
          123,
          124,
          125,
          126,
          127,
          128,
          129,
          130,
          131,
          132,
          133,
          134,
          135,
          136,
          137,
          138,
          139,
          140,
          141,
          142,
          143,
          144,
          145,
          146,
          147,
          148,
          149,
          150,
          151,
          152,
          153,
          154,
          155,
          156,
          157,
          158,
          159,
          160,
          161,
          162,
          163,
          164
        ],
        "AcquisitionTime": [
          "103952.982500",
          "103956.997500",
          "103959.005000",
          "104001.012500",
          "104003.022500",
          "104005.030000",
          "104007.037500",
          "104009.045000",
          "104011.055000",
          "104013.062500",
          "104015.070000",
          "104017.077500",
          "104019.085000",
          "104021.095000",
          "104023.102500",
          "104025.110000",
          "104027.117500",
          "104029.125000",
          "104031.135000",
          "104033.142500",
          "104035.150000",
          "104037.157500",
          "104039.165000",
          "104041.175000",
          "104043.182500",
          "104045.190000",
          "104047.197500",
          "104049.207500",
          "104051.215000",
          "104053.222500",
          "104055.230000",
          "104057.237500",
          "104059.247500",
          "104101.255000",
          "104103.262500",
          "104105.270000",
          "104107.277500",
          "104109.287500",
          "104111.295000",
          "104113.302500",
          "104115.310000",
          "104117.320000",
          "104119.327500",
          "104121.335000",
          "104123.342500",
          "104125.350000",
          "104127.360000",
          "104129.367500",
          "104131.375000",
          "104133.382500",
          "104135.390000",
          "104137.400000",
          "104139.407500",
          "104141.415000",
          "104143.422500",
          "104145.432500",
          "104147.440000",
          "104149.447500",
          "104151.455000",
          "104153.462500",
          "104155.472500",
          "104157.480000",
          "104159.487500",
          "104201.495000",
          "104203.502500",
          "104205.512500",
          "104207.520000",
          "104209.527500",
          "104211.535000",
          "104213.542500",
          "104215.552500",
          "104217.560000",
          "104219.567500",
          "104221.575000",
          "104223.585000",
          "104225.592500",
          "104227.600000",
          "104229.607500",
          "104231.615000",
          "104233.625000",
          "104235.632500",
          "104237.640000",
          "104239.647500",
          "104241.655000",
          "104243.665000",
          "104245.672500",
          "104247.680000",
          "104249.687500",
          "104251.697500",
          "104253.705000",
          "104255.712500",
          "104257.720000",
          "104259.727500",
          "104301.737500",
          "104303.745000",
          "104305.752500",
          "104307.760000",
          "104309.767500",
          "104311.777500",
          "104313.785000",
          "104315.792500",
          "104317.800000",
          "104319.810000",
          "104321.817500",
          "104323.825000",
          "104325.832500",
          "104327.840000",
          "104329.850000",
          "104331.857500",
          "104333.865000",
          "104335.872500",
          "104337.880000",
          "104339.890000",
          "104341.897500",
          "104343.905000",
          "104345.912500",
          "104347.920000",
          "104349.930000",
          "104351.937500",
          "104353.945000",
          "104355.952500",
          "104357.962500",
          "104359.970000",
          "104401.977500",
          "104403.985000",
          "104405.992500",
          "104408.002500",
          "104410.010000",
          "104412.017500",
          "104414.025000",
          "104416.032500",
          "104418.042500",
          "104420.050000",
          "104422.057500",
          "104424.065000",
          "104426.075000",
          "104428.082500",
          "104430.090000",
          "104432.097500",
          "104434.105000",
          "104436.115000",
          "104438.122500",
          "104440.130000",
          "104442.137500",
          "104444.145000",
          "104446.155000",
          "104448.162500",
          "104450.170000",
          "104452.177500",
          "104454.187500",
          "104456.195000",
          "104458.202500",
          "104500.210000",
          "104502.217500",
          "104504.227500",
          "104506.235000",
          "104508.242500",
          "104510.250000",
          "104512.257500",
          "104514.267500",
          "104516.275000",
          "104518.282500",
          "104520.290000",
          "104522.297500"
        ],
        "ContentTime": [
          "104052.125000",
          "104052.140000",
          "104052.140000",
          "104052.140000",
          "104052.140000",
          "104052.156000",
          "104052.156000",
          "104052.156000",
          "104052.156000",
          "104052.156000",
          "104052.156000",
          "104052.156000",
          "104052.171000",
          "104052.171000",
          "104052.171000",
          "104052.171000",
          "104052.171000",
          "104052.171000",
          "104052.171000",
          "104052.187000",
          "104052.187000",
          "104052.187000",
          "104052.187000",
          "104052.187000",
          "104052.203000",
          "104052.203000",
          "104052.203000",
          "104052.203000",
          "104132.125000",
          "104132.125000",
          "104132.125000",
          "104132.125000",
          "104132.125000",
          "104132.140000",
          "104132.140000",
          "104132.140000",
          "104132.140000",
          "104132.140000",
          "104132.140000",
          "104132.156000",
          "104132.156000",
          "104132.156000",
          "104132.156000",
          "104132.156000",
          "104132.156000",
          "104132.171000",
          "104132.171000",
          "104132.171000",
          "104212.125000",
          "104212.125000",
          "104212.125000",
          "104212.140000",
          "104212.140000",
          "104212.140000",
          "104212.140000",
          "104212.156000",
          "104212.156000",
          "104212.156000",
          "104212.156000",
          "104212.156000",
          "104212.156000",
          "104212.171000",
          "104212.171000",
          "104212.171000",
          "104212.171000",
          "104212.171000",
          "104212.171000",
          "104212.187000",
          "104252.125000",
          "104252.140000",
          "104252.140000",
          "104252.140000",
          "104252.140000",
          "104252.140000",
          "104252.140000",
          "104252.140000",
          "104252.156000",
          "104252.156000",
          "104252.156000",
          "104252.156000",
          "104252.156000",
          "104252.156000",
          "104252.171000",
          "104252.171000",
          "104252.171000",
          "104252.171000",
          "104252.187000",
          "104252.187000",
          "104332.125000",
          "104332.125000",
          "104332.125000",
          "104332.125000",
          "104332.125000",
          "104332.140000",
          "104332.140000",
          "104332.140000",
          "104332.140000",
          "104332.156000",
          "104332.156000",
          "104332.156000",
          "104332.156000",
          "104332.156000",
          "104332.156000",
          "104332.171000",
          "104332.171000",
          "104332.171000",
          "104332.171000",
          "104332.171000",
          "104412.125000",
          "104412.125000",
          "104412.125000",
          "104412.125000",
          "104412.125000",
          "104412.140000",
          "104412.140000",
          "104412.140000",
          "104412.140000",
          "104412.140000",
          "104412.140000",
          "104412.140000",
          "104412.156000",
          "104412.156000",
          "104412.156000",
          "104412.156000",
          "104412.156000",
          "104412.156000",
          "104412.171000",
          "104412.171000",
          "104452.125000",
          "104452.125000",
          "104452.125000",
          "104452.125000",
          "104452.125000",
          "104452.140000",
          "104452.140000",
          "104452.140000",
          "104452.140000",
          "104452.140000",
          "104452.140000",
          "104452.140000",
          "104452.156000",
          "104452.156000",
          "104452.156000",
          "104452.156000",
          "104452.156000",
          "104452.156000",
          "104452.156000",
          "104452.171000",
          "104522.500000",
          "104522.515000",
          "104522.515000",
          "104522.515000",
          "104522.515000",
          "104522.515000",
          "104522.515000",
          "104522.515000",
          "104522.531000",
          "104522.531000",
          "104522.531000",
          "104522.531000",
          "104522.531000",
          "104522.531000",
          "104522.531000",
          "104522.546000"
        ],
        "InstanceCreationTime": [
          "104052.125000",
          "104052.140000",
          "104052.140000",
          "104052.140000",
          "104052.140000",
          "104052.156000",
          "104052.156000",
          "104052.156000",
          "104052.156000",
          "104052.156000",
          "104052.156000",
          "104052.156000",
          "104052.171000",
          "104052.171000",
          "104052.171000",
          "104052.171000",
          "104052.171000",
          "104052.171000",
          "104052.171000",
          "104052.187000",
          "104052.187000",
          "104052.187000",
          "104052.187000",
          "104052.187000",
          "104052.203000",
          "104052.203000",
          "104052.203000",
          "104052.203000",
          "104132.125000",
          "104132.125000",
          "104132.125000",
          "104132.125000",
          "104132.125000",
          "104132.140000",
          "104132.140000",
          "104132.140000",
          "104132.140000",
          "104132.140000",
          "104132.140000",
          "104132.156000",
          "104132.156000",
          "104132.156000",
          "104132.156000",
          "104132.156000",
          "104132.156000",
          "104132.171000",
          "104132.171000",
          "104132.171000",
          "104212.125000",
          "104212.125000",
          "104212.125000",
          "104212.140000",
          "104212.140000",
          "104212.140000",
          "104212.140000",
          "104212.156000",
          "104212.156000",
          "104212.156000",
          "104212.156000",
          "104212.156000",
          "104212.156000",
          "104212.171000",
          "104212.171000",
          "104212.171000",
          "104212.171000",
          "104212.171000",
          "104212.171000",
          "104212.187000",
          "104252.125000",
          "104252.140000",
          "104252.140000",
          "104252.140000",
          "104252.140000",
          "104252.140000",
          "104252.140000",
          "104252.140000",
          "104252.156000",
          "104252.156000",
          "104252.156000",
          "104252.156000",
          "104252.156000",
          "104252.156000",
          "104252.171000",
          "104252.171000",
          "104252.171000",
          "104252.171000",
          "104252.187000",
          "104252.187000",
          "104332.125000",
          "104332.125000",
          "104332.125000",
          "104332.125000",
          "104332.125000",
          "104332.140000",
          "104332.140000",
          "104332.140000",
          "104332.140000",
          "104332.156000",
          "104332.156000",
          "104332.156000",
          "104332.156000",
          "104332.156000",
          "104332.156000",
          "104332.171000",
          "104332.171000",
          "104332.171000",
          "104332.171000",
          "104332.171000",
          "104412.125000",
          "104412.125000",
          "104412.125000",
          "104412.125000",
          "104412.125000",
          "104412.140000",
          "104412.140000",
          "104412.140000",
          "104412.140000",
          "104412.140000",
          "104412.140000",
          "104412.140000",
          "104412.156000",
          "104412.156000",
          "104412.156000",
          "104412.156000",
          "104412.156000",
          "104412.156000",
          "104412.171000",
          "104412.171000",
          "104452.125000",
          "104452.125000",
          "104452.125000",
          "104452.125000",
          "104452.125000",
          "104452.140000",
          "104452.140000",
          "104452.140000",
          "104452.140000",
          "104452.140000",
          "104452.140000",
          "104452.140000",
          "104452.156000",
          "104452.156000",
          "104452.156000",
          "104452.156000",
          "104452.156000",
          "104452.156000",
          "104452.156000",
          "104452.171000",
          "104522.500000",
          "104522.515000",
          "104522.515000",
          "104522.515000",
          "104522.515000",
          "104522.515000",
          "104522.515000",
          "104522.515000",
          "104522.531000",
          "104522.531000",
          "104522.531000",
          "104522.531000",
          "104522.531000",
          "104522.531000",
          "104522.531000",
          "104522.546000"
        ],
        "InstanceNumber": [
          1,
          2,
          3,
          4,
          5,
          6,
          7,
          8,
          9,
          10,
          11,
          12,
          13,
          14,
          15,
          16,
          17,
          18,
          19,
          20,
          21,
          22,
          23,
          24,
          25,
          26,
          27,
          28,
          29,
          30,
          31,
          32,
          33,
          34,
          35,
          36,
          37,
          38,
          39,
          40,
          41,
          42,
          43,
          44,
          45,
          46,
          47,
          48,
          49,
          50,
          51,
          52,
          53,
          54,
          55,
          56,
          57,
          58,
          59,
          60,
          61,
          62,
          63,
          64,
          65,
          66,
          67,
          68,
          69,
          70,
          71,
          72,
          73,
          74,
          75,
          76,
          77,
          78,
          79,
          80,
          81,
          82,
          83,
          84,
          85,
          86,
          87,
          88,
          89,
          90,
          91,
          92,
          93,
          94,
          95,
          96,
          97,
          98,
          99,
          100,
          101,
          102,
          103,
          104,
          105,
          106,
          107,
          108,
          109,
          110,
          111,
          112,
          113,
          114,
          115,
          116,
          117,
          118,
          119,
          120,
          121,
          122,
          123,
          124,
          125,
          126,
          127,
          128,
          129,
          130,
          131,
          132,
          133,
          134,
          135,
          136,
          137,
          138,
          139,
          140,
          141,
          142,
          143,
          144,
          145,
          146,
          147,
          148,
          149,
          150,
          151,
          152,
          153,
          154,
          155,
          156,
          157,
          158,
          159,
          160,
          161,
          162,
          163,
          164
        ],
        "WindowCenter": [
          1065.0,
          1062.0,
          1065.0,
          1064.0,
          1063.0,
          1065.0,
          1063.0,
          1065.0,
          1066.0,
          1063.0,
          1062.0,
          1064.0,
          1065.0,
          1062.0,
          1063.0,
          1063.0,
          1063.0,
          1066.0,
          1065.0,
          1067.0,
          1065.0,
          1065.0,
          1065.0,
          1066.0,
          1066.0,
          1066.0,
          1067.0,
          1066.0,
          1066.0,
          1065.0,
          1067.0,
          1063.0,
          1062.0,
          1065.0,
          1067.0,
          1065.0,
          1064.0,
          1065.0,
          1069.0,
          1066.0,
          1065.0,
          1066.0,
          1064.0,
          1065.0,
          1066.0,
          1065.0,
          1063.0,
          1068.0,
          1068.0,
          1068.0,
          1066.0,
          1063.0,
          1065.0,
          1065.0,
          1066.0,
          1067.0,
          1065.0,
          1068.0,
          1068.0,
          1065.0,
          1068.0,
          1068.0,
          1065.0,
          1067.0,
          1065.0,
          1064.0,
          1068.0,
          1068.0,
          1067.0,
          1067.0,
          1067.0,
          1069.0,
          1068.0,
          1066.0,
          1067.0,
          1068.0,
          1067.0,
          1065.0,
          1064.0,
          1066.0,
          1064.0,
          1065.0,
          1066.0,
          1065.0,
          1068.0,
          1067.0,
          1064.0,
          1067.0,
          1069.0,
          1065.0,
          1069.0,
          1070.0,
          1068.0,
          1067.0,
          1065.0,
          1066.0,
          1070.0,
          1068.0,
          1069.0,
          1067.0,
          1067.0,
          1067.0,
          1071.0,
          1071.0,
          1066.0,
          1064.0,
          1067.0,
          1067.0,
          1067.0,
          1067.0,
          1064.0,
          1064.0,
          1066.0,
          1065.0,
          1063.0,
          1066.0,
          1067.0,
          1066.0,
          1068.0,
          1065.0,
          1069.0,
          1070.0,
          1066.0,
          1065.0,
          1066.0,
          1067.0,
          1066.0,
          1068.0,
          1065.0,
          1069.0,
          1068.0,
          1066.0,
          1066.0,
          1066.0,
          1067.0,
          1065.0,
          1066.0,
          1068.0,
          1069.0,
          1067.0,
          1066.0,
          1067.0,
          1066.0,
          1067.0,
          1067.0,
          1067.0,
          1066.0,
          1064.0,
          1066.0,
          1065.0,
          1067.0,
          1067.0,
          1068.0,
          1068.0,
          1064.0,
          1064.0,
          1067.0,
          1066.0,
          1066.0,
          1067.0,
          1067.0,
          1070.0,
          1069.0,
          1071.0
        ],
        "WindowWidth": [
          2885.0,
          2876.0,
          2889.0,
          2889.0,
          2883.0,
          2892.0,
          2889.0,
          2898.0,
          2900.0,
          2887.0,
          2882.0,
          2894.0,
          2890.0,
          2881.0,
          2890.0,
          2888.0,
          2892.0,
          2896.0,
          2891.0,
          2898.0,
          2895.0,
          2895.0,
          2893.0,
          2897.0,
          2889.0,
          2899.0,
          2892.0,
          2897.0,
          2896.0,
          2895.0,
          2896.0,
          2880.0,
          2882.0,
          2894.0,
          2894.0,
          2889.0,
          2886.0,
          2898.0,
          2905.0,
          2893.0,
          2893.0,
          2896.0,
          2887.0,
          2891.0,
          2894.0,
          2878.0,
          2889.0,
          2907.0,
          2898.0,
          2903.0,
          2883.0,
          2882.0,
          2882.0,
          2889.0,
          2895.0,
          2895.0,
          2891.0,
          2901.0,
          2894.0,
          2884.0,
          2895.0,
          2894.0,
          2891.0,
          2893.0,
          2881.0,
          2886.0,
          2901.0,
          2895.0,
          2899.0,
          2896.0,
          2893.0,
          2900.0,
          2894.0,
          2895.0,
          2897.0,
          2898.0,
          2895.0,
          2880.0,
          2883.0,
          2892.0,
          2883.0,
          2890.0,
