{
  "aor": 0.001196768292682927,
  "aqi": 0.004110566402439025,
  "bids_meta": {
    "AcquisitionMatrixPE": 96,
    "AcquisitionNumber": 1,
    "AcquisitionTime": "11:41:41.355000",
    "BandwidthPerPixelPhaseEncode": 52.083,
    "BaseResolution": 96,
    "BodyPartExamined": "HEAD",
    "ConversionSoftware": "dcm2niix",
    "ConversionSoftwareVersion": "v1.0.20180622 GCC6.3.0",
    "DerivedVendorReportedEchoSpacing": 0.000600004,
    "DeviceSerialNumber": "18926",
    "DwellTime": 2.6e-06,
    "EchoTime": 0.025,
    "EffectiveEchoSpacing": 0.000200001,
    "FlipAngle": 50,
    "ImageOrientationPatientDICOM": [
      0.999992,
      0.00067012,
      0.00404905,
      2.11009e-10,
      0.98658,
      -0.16328
    ],
    "ImageType": [
      "ORIGINAL",
      "PRIMARY",
      "M",
      "ND",
      "ECHO",
      "00",
      "MOSAIC"
    ],
    "InPlanePhaseEncodingDirectionDICOM": "ROW",
    "InstitutionName": "NIMH",
    "InstitutionalDepartmentName": "Department",
    "MRAcquisitionType": "2D",
    "MagneticFieldStrength": 6.98,
    "Manufacturer": "Siemens",
    "ManufacturersModelName": "Investigational_Device_7T",
    "Modality": "MR",
    "ParallelReductionFactorInPlane": 3,
    "PartialFourier": 1,
    "PatientPosition": "HFS",
    "PercentPhaseFOV": 100,
    "PhaseEncodingDirection": "i",
    "PhaseEncodingSteps": 94,
    "PhaseResolution": 1,
    "PixelBandwidth": 2003,
    "ProcedureStepDescription": "MRI_Procedure_Limited",
    "ProtocolName": "NIH_EPI_2.0iso_TR2_Run13",
    "PulseSequenceDetails": "%CustomerSeq%_inati_nih_epi",
    "ReceiveCoilName": "32Ch_Head_7T",
    "ReconMatrixPE": 96,
    "RepetitionTime": 2,
    "SAR": 0.0921352,
    "ScanningSequence": "EP",
    "SequenceName": "epfid2d1_96",
    "SequenceVariant": "SK",
    "SeriesDescription": "NIH_EPI_2.0iso_TR2_Run13",
    "SeriesNumber": 17,
    "ShimSetting": [
      -125,
      144,
      1430,
      2389,
      -185,
      -70,
      136,
      -236
    ],
    "SliceThickness": 2,
    "SliceTiming": [
      1.005,
      0,
      1.04,
      0.0375,
      1.0775,
      0.075,
      1.115,
      0.1125,
      1.1525,
      0.15,
      1.19,
      0.185,
      1.2275,
      0.2225,
      1.265,
      0.26,
      1.3025,
      0.2975,
      1.3375,
      0.335,
      1.375,
      0.3725,
      1.4125,
      0.41,
      1.45,
      0.4475,
      1.4875,
      0.4825,
      1.525,
      0.52,
      1.5625,
      0.5575,
      1.6,
      0.595,
      1.635,
      0.6325,
      1.6725,
      0.67,
      1.71,
      0.7075,
      1.7475,
      0.7425,
      1.785,
      0.78,
      1.8225,
      0.8175,
      1.86,
      0.855,
      1.8975,
      0.8925,
      1.9325,
      0.93,
      1.97,
      0.9675
    ],
    "SoftwareVersions": "syngo_MR_B17",
    "SpacingBetweenSlices": 2,
    "StationName": "FMRIFD7T",
    "TaskName": "FullFovNoAttentionTask",
    "TotalReadoutTime": 0.0190001,
    "TxRefAmp": 303,
    "dataset": "ds001555",
    "dcmmeta_affine": [
      [
        -1.9999831914901733,
        4.2201880878778297e-10,
        0.008208253420889378,
        95.76705169677734
      ],
      [
        -0.0013402394251897931,
        1.973159670829773,
        -0.32655632495880127,
        -63.118167877197266
      ],
      [
        0.008098097518086433,
        0.32655906677246094,
        1.9731431007385254,
        -38.87153625488281
      ],
      [
        0.0,
        0.0,
        0.0,
        1.0
      ]
    ],
    "dcmmeta_reorient_transform": [
      [
        0.0,
        -1.0,
        0.0,
        95.0
      ],
      [
        1.0,
        0.0,
        0.0,
        0.0
      ],
      [
        0.0,
        0.0,
        1.0,
        0.0
      ],
      [
        0.0,
        0.0,
        0.0,
        1.0
      ]
    ],
    "dcmmeta_shape": [
      96,
      96,
      54,
      164
    ],
    "dcmmeta_slice_dim": 2,
    "dcmmeta_version": 0.6,
    "global": {
      "const": {
        "AcquisitionMatrix": [
          0,
          96,
          96,
          0
        ],
        "Allergies": "No Known Allergies",
        "AngioFlag": "N",
        "BitsAllocated": 16,
        "BitsStored": 12,
        "BodyPartExamined": "HEAD",
        "Columns": 768,
        "EchoNumbers": 1,
        "EchoTime": 25.0,
        "EchoTrainLength": 1,
        "FlipAngle": 50.0,
        "HighBit": 11,
        "ImageOrientationPatient": [
          0.99999157803662,
          0.00067011969073,
          0.00404904870684,
          2.110094e-10,
          0.98657984636313,
          -0.1632795356133
        ],
        "ImagePositionPatient": [
          -767.761392775,
          -787.76398131462,
          99.154463849561
        ],
        "ImageType": [
          "ORIGINAL",
          "PRIMARY",
          "M",
          "ND",
          "ECHO_00",
          "MOSAIC"
        ],
        "ImagedNucleus": "1H",
        "ImagingFrequency": 297.205124,
        "InPlanePhaseEncodingDirection": "ROW",
        "LargestImagePixelValue": 4095,
        "MRAcquisitionType": "2D",
        "MagneticFieldStrength": 6.98,
        "Manufacturer": "SIEMENS",
        "ManufacturerModelName": "Investigational_Device_7T",
        "Modality": "MR",
        "NumberOfAverages": 1.0,
        "NumberOfPhaseEncodingSteps": 94,
        "PercentPhaseFieldOfView": 100.0,
        "PercentSampling": 100.0,
        "PerformedProcedureStepStartTime": "101043.468000",
        "PhotometricInterpretation": "MONOCHROME2",
        "PixelBandwidth": 2003.0,
        "PixelRepresentation": 0,
        "PixelSpacing": [
          2.0,
          2.0
        ],
        "PositionReferenceIndicator": "",
        "ProcedureCodeSequence": [
          {
            "CodeMeaning": "MRI Procedure Limited",
            "CodeValue": "MI01491",
            "CodingSchemeDesignator": "USA Standard",
            "ContextIdentifier": "4000109575"
          }
        ],
        "ProtocolName": "NIH_EPI_2.0iso_TR2_Run13",
        "ReferencedStudySequence": [
          {
            "ReferencedSOPClassUID": "1.2.840.10008.3.1.2.3.1",
            "ReferencedSOPInstanceUID": "1.2.840.113564.9.1.2723958737.61.2.5000075337"
          }
        ],
        "RepetitionTime": 2000.0,
        "RequestedProcedureCodeSequence": [
          {
            "CodeMeaning": "MRI Procedure Limited",
            "CodeValue": "MI01491",
            "CodingSchemeDesignator": "USA Standard",
            "ContextIdentifier": "4000109575"
          }
        ],
        "RequestingService": "MHED",
        "Rows": 768,
        "SAR": 0.09213524071949,
        "SamplesPerPixel": 1,
        "ScanningSequence": "EP",
        "SequenceName": "epfid2d1_96",
        "SequenceVariant": "SK",
        "SeriesDescription": "NIH_EPI_2.0iso_TR2_Run13",
        "SeriesNumber": 17,
        "SliceLocation": -27.650691900607,
        "SliceThickness": 2.0,
        "SmallestImagePixelValue": 0,
        "SoftwareVersions": "syngo MR B17",
        "SpacingBetweenSlices": 1.9999999799801,
        "TransmitCoilName": "32Ch_Head_7T",
        "VariableFlipAngleFlag": "N",
        "WindowCenterWidthExplanation": "Algo1",
        "dBdt": 0.0
      },
      "slices": {}
    },
    "modality": "bold",
    "run_id": 14,
    "session_id": "04",
    "subject_id": "002",
    "task_id": "FullFovNoAttentionTask",
    "time": {
      "samples": {
        "AcquisitionNumber": [
          1,
          2,
          3,
          4,
          5,
          6,
          7,
          8,
          9,
          10,
          11,
          12,
          13,
          14,
          15,
          16,
          17,
          18,
          19,
          20,
          21,
          22,
          23,
          24,
          25,
          26,
          27,
          28,
          29,
          30,
          31,
          32,
          33,
          34,
          35,
          36,
          37,
          38,
          39,
          40,
          41,
          42,
          43,
          44,
          45,
          46,
          47,
          48,
          49,
          50,
          51,
          52,
          53,
          54,
          55,
          56,
          57,
          58,
          59,
          60,
          61,
          62,
          63,
          64,
          65,
          66,
          67,
          68,
          69,
          70,
          71,
          72,
          73,
          74,
          75,
          76,
          77,
          78,
          79,
          80,
          81,
          82,
          83,
          84,
          85,
          86,
          87,
          88,
          89,
          90,
          91,
          92,
          93,
          94,
          95,
          96,
          97,
          98,
          99,
          100,
          101,
          102,
          103,
          104,
          105,
          106,
          107,
          108,
          109,
          110,
          111,
          112,
          113,
          114,
          115,
          116,
          117,
          118,
          119,
          120,
          121,
          122,
          123,
          124,
          125,
          126,
          127,
          128,
          129,
          130,
          131,
          132,
          133,
          134,
          135,
          136,
          137,
          138,
          139,
          140,
          141,
          142,
          143,
          144,
          145,
          146,
          147,
          148,
          149,
          150,
          151,
          152,
          153,
          154,
          155,
          156,
          157,
          158,
          159,
          160,
          161,
          162,
          163,
          164
        ],
        "AcquisitionTime": [
          "114141.355000",
          "114145.370000",
          "114147.377500",
          "114149.385000",
          "114151.395000",
          "114153.402500",
          "114155.410000",
          "114157.417500",
          "114159.427500",
          "114201.435000",
          "114203.442500",
          "114205.450000",
          "114207.457500",
          "114209.467500",
          "114211.475000",
          "114213.482500",
          "114215.490000",
          "114217.497500",
          "114219.507500",
          "114221.515000",
          "114223.522500",
          "114225.530000",
          "114227.537500",
          "114229.547500",
          "114231.555000",
          "114233.562500",
          "114235.570000",
          "114237.580000",
          "114239.587500",
          "114241.595000",
          "114243.602500",
          "114245.610000",
          "114247.620000",
          "114249.627500",
          "114251.635000",
          "114253.642500",
          "114255.650000",
          "114257.660000",
          "114259.667500",
          "114301.675000",
          "114303.682500",
          "114305.692500",
          "114307.700000",
          "114309.707500",
          "114311.715000",
          "114313.722500",
          "114315.732500",
          "114317.740000",
          "114319.747500",
          "114321.755000",
          "114323.762500",
          "114325.772500",
          "114327.780000",
          "114329.787500",
          "114331.795000",
          "114333.805000",
          "114335.812500",
          "114337.820000",
          "114339.827500",
          "114341.835000",
          "114343.845000",
          "114345.852500",
          "114347.860000",
          "114349.867500",
          "114351.875000",
          "114353.885000",
          "114355.892500",
          "114357.900000",
          "114359.907500",
          "114401.915000",
          "114403.925000",
          "114405.932500",
          "114407.940000",
          "114409.947500",
          "114411.957500",
          "114413.965000",
          "114415.972500",
          "114417.980000",
          "114419.987500",
          "114421.997500",
          "114424.005000",
          "114426.012500",
          "114428.020000",
          "114430.027500",
          "114432.037500",
          "114434.045000",
          "114436.052500",
          "114438.060000",
          "114440.070000",
          "114442.077500",
          "114444.085000",
          "114446.092500",
          "114448.100000",
          "114450.110000",
          "114452.117500",
          "114454.125000",
          "114456.132500",
          "114458.140000",
          "114500.150000",
          "114502.157500",
          "114504.165000",
          "114506.172500",
          "114508.182500",
          "114510.190000",
          "114512.197500",
          "114514.205000",
          "114516.212500",
          "114518.222500",
          "114520.230000",
          "114522.237500",
          "114524.245000",
          "114526.252500",
          "114528.262500",
          "114530.270000",
          "114532.277500",
          "114534.285000",
          "114536.292500",
          "114538.302500",
          "114540.310000",
          "114542.317500",
          "114544.325000",
          "114546.335000",
          "114548.342500",
          "114550.350000",
          "114552.357500",
          "114554.365000",
          "114556.375000",
          "114558.382500",
          "114600.390000",
          "114602.397500",
          "114604.405000",
          "114606.415000",
          "114608.422500",
          "114610.430000",
          "114612.437500",
          "114614.447500",
          "114616.455000",
          "114618.462500",
          "114620.470000",
          "114622.477500",
          "114624.487500",
          "114626.495000",
          "114628.502500",
          "114630.510000",
          "114632.517500",
          "114634.527500",
          "114636.535000",
          "114638.542500",
          "114640.550000",
          "114642.560000",
          "114644.567500",
          "114646.575000",
          "114648.582500",
          "114650.590000",
          "114652.600000",
          "114654.607500",
          "114656.615000",
          "114658.622500",
          "114700.630000",
          "114702.640000",
          "114704.647500",
          "114706.655000",
          "114708.662500",
          "114710.670000"
        ],
        "ContentTime": [
          "114224.640000",
          "114224.656000",
          "114224.656000",
          "114224.656000",
          "114224.656000",
          "114224.656000",
          "114224.656000",
          "114224.671000",
          "114224.671000",
          "114224.671000",
          "114224.671000",
          "114224.671000",
          "114224.671000",
          "114224.671000",
          "114224.687000",
          "114224.687000",
          "114224.703000",
          "114224.703000",
          "114224.703000",
          "114224.703000",
          "114304.640000",
          "114304.640000",
          "114304.640000",
          "114304.640000",
          "114304.640000",
          "114304.656000",
          "114304.656000",
          "114304.656000",
          "114304.656000",
          "114304.656000",
          "114304.656000",
          "114304.656000",
          "114304.671000",
          "114304.671000",
          "114304.671000",
          "114304.671000",
          "114304.671000",
          "114304.671000",
          "114304.687000",
          "114304.687000",
          "114344.640000",
          "114344.640000",
          "114344.640000",
          "114344.640000",
          "114344.640000",
          "114344.656000",
          "114344.656000",
          "114344.656000",
          "114344.656000",
          "114344.656000",
          "114344.656000",
          "114344.656000",
          "114344.671000",
          "114344.671000",
          "114344.671000",
          "114344.671000",
          "114344.671000",
          "114344.671000",
          "114344.687000",
          "114344.687000",
          "114424.640000",
          "114424.640000",
          "114424.640000",
          "114424.640000",
          "114424.640000",
          "114424.656000",
          "114424.656000",
          "114424.656000",
          "114424.656000",
          "114424.656000",
          "114424.656000",
          "114424.671000",
          "114424.671000",
          "114424.671000",
          "114424.671000",
          "114424.671000",
          "114424.671000",
          "114424.671000",
          "114424.687000",
          "114424.687000",
          "114504.640000",
          "114504.640000",
          "114504.640000",
          "114504.640000",
          "114504.640000",
          "114504.656000",
          "114504.656000",
          "114504.656000",
          "114504.656000",
          "114504.656000",
          "114504.656000",
          "114504.656000",
          "114504.671000",
          "114504.671000",
          "114504.671000",
          "114504.671000",
          "114504.671000",
          "114504.671000",
          "114504.671000",
          "114504.687000",
          "114544.640000",
          "114544.640000",
          "114544.640000",
          "114544.656000",
          "114544.656000",
          "114544.656000",
          "114544.671000",
          "114544.671000",
          "114544.671000",
          "114544.671000",
          "114544.671000",
          "114544.687000",
          "114544.687000",
          "114544.687000",
          "114544.687000",
          "114544.703000",
          "114544.703000",
          "114544.703000",
          "114544.703000",
          "114544.703000",
          "114624.640000",
          "114624.640000",
          "114624.640000",
          "114624.656000",
          "114624.656000",
          "114624.656000",
          "114624.656000",
          "114624.656000",
          "114624.656000",
          "114624.671000",
          "114624.671000",
          "114624.671000",
          "114624.671000",
          "114624.687000",
          "114624.687000",
          "114624.687000",
          "114624.687000",
          "114624.687000",
          "114624.703000",
          "114624.703000",
          "114704.640000",
          "114704.640000",
          "114704.640000",
          "114704.656000",
          "114704.656000",
          "114704.656000",
          "114704.656000",
          "114704.656000",
          "114704.656000",
          "114704.656000",
          "114704.671000",
          "114704.671000",
          "114704.671000",
          "114704.671000",
          "114704.671000",
          "114704.687000",
          "114704.687000",
          "114704.687000",
          "114704.687000",
          "114704.687000",
          "114711.390000",
          "114711.390000",
          "114711.406000",
          "114711.406000"
        ],
        "InstanceCreationTime": [
          "114224.640000",
          "114224.656000",
          "114224.656000",
          "114224.656000",
          "114224.656000",
          "114224.656000",
          "114224.656000",
          "114224.671000",
          "114224.671000",
          "114224.671000",
          "114224.671000",
          "114224.671000",
          "114224.671000",
          "114224.671000",
          "114224.687000",
          "114224.687000",
          "114224.703000",
          "114224.703000",
          "114224.703000",
          "114224.703000",
          "114304.640000",
          "114304.640000",
          "114304.640000",
          "114304.640000",
          "114304.640000",
          "114304.656000",
          "114304.656000",
          "114304.656000",
          "114304.656000",
          "114304.656000",
          "114304.656000",
          "114304.656000",
          "114304.671000",
          "114304.671000",
          "114304.671000",
          "114304.671000",
          "114304.671000",
          "114304.671000",
          "114304.687000",
          "114304.687000",
          "114344.640000",
          "114344.640000",
          "114344.640000",
          "114344.640000",
          "114344.640000",
          "114344.656000",
          "114344.656000",
          "114344.656000",
          "114344.656000",
          "114344.656000",
          "114344.656000",
          "114344.656000",
          "114344.671000",
          "114344.671000",
          "114344.671000",
          "114344.671000",
          "114344.671000",
          "114344.671000",
          "114344.687000",
          "114344.687000",
          "114424.640000",
          "114424.640000",
          "114424.640000",
          "114424.640000",
          "114424.640000",
          "114424.656000",
          "114424.656000",
          "114424.656000",
          "114424.656000",
          "114424.656000",
          "114424.656000",
          "114424.671000",
          "114424.671000",
          "114424.671000",
          "114424.671000",
          "114424.671000",
          "114424.671000",
          "114424.671000",
          "114424.687000",
          "114424.687000",
          "114504.640000",
          "114504.640000",
          "114504.640000",
          "114504.640000",
          "114504.640000",
          "114504.656000",
          "114504.656000",
          "114504.656000",
          "114504.656000",
          "114504.656000",
          "114504.656000",
          "114504.656000",
          "114504.671000",
          "114504.671000",
          "114504.671000",
          "114504.671000",
          "114504.671000",
          "114504.671000",
          "114504.671000",
          "114504.687000",
          "114544.640000",
          "114544.640000",
          "114544.640000",
          "114544.656000",
          "114544.656000",
          "114544.656000",
          "114544.671000",
          "114544.671000",
          "114544.671000",
          "114544.671000",
          "114544.671000",
          "114544.687000",
          "114544.687000",
          "114544.687000",
          "114544.687000",
          "114544.703000",
          "114544.703000",
          "114544.703000",
          "114544.703000",
          "114544.703000",
          "114624.640000",
          "114624.640000",
          "114624.640000",
          "114624.656000",
          "114624.656000",
          "114624.656000",
          "114624.656000",
          "114624.656000",
          "114624.656000",
          "114624.671000",
          "114624.671000",
          "114624.671000",
          "114624.671000",
          "114624.687000",
          "114624.687000",
          "114624.687000",
          "114624.687000",
          "114624.687000",
          "114624.703000",
          "114624.703000",
          "114704.640000",
          "114704.640000",
          "114704.640000",
          "114704.656000",
          "114704.656000",
          "114704.656000",
          "114704.656000",
          "114704.656000",
          "114704.656000",
          "114704.656000",
          "114704.671000",
          "114704.671000",
          "114704.671000",
          "114704.671000",
          "114704.671000",
          "114704.687000",
          "114704.687000",
          "114704.687000",
          "114704.687000",
          "114704.687000",
          "114711.390000",
          "114711.390000",
          "114711.406000",
          "114711.406000"
        ],
        "InstanceNumber": [
          1,
          2,
          3,
          4,
          5,
          6,
          7,
          8,
          9,
          10,
          11,
          12,
          13,
          14,
          15,
          16,
          17,
          18,
          19,
          20,
          21,
          22,
          23,
          24,
          25,
          26,
          27,
          28,
          29,
          30,
          31,
          32,
          33,
          34,
          35,
          36,
          37,
          38,
          39,
          40,
          41,
          42,
          43,
          44,
          45,
          46,
          47,
          48,
          49,
          50,
          51,
          52,
          53,
          54,
          55,
          56,
          57,
          58,
          59,
          60,
          61,
          62,
          63,
          64,
          65,
          66,
          67,
          68,
          69,
          70,
          71,
          72,
          73,
          74,
          75,
          76,
          77,
          78,
          79,
          80,
          81,
          82,
          83,
          84,
          85,
          86,
          87,
          88,
          89,
          90,
          91,
          92,
          93,
          94,
          95,
          96,
          97,
          98,
          99,
          100,
          101,
          102,
          103,
          104,
          105,
          106,
          107,
          108,
          109,
          110,
          111,
          112,
          113,
          114,
          115,
          116,
          117,
          118,
          119,
          120,
          121,
          122,
          123,
          124,
          125,
          126,
          127,
          128,
          129,
          130,
          131,
          132,
          133,
          134,
          135,
          136,
          137,
          138,
          139,
          140,
          141,
          142,
          143,
          144,
          145,
          146,
          147,
          148,
          149,
          150,
          151,
          152,
          153,
          154,
          155,
          156,
          157,
          158,
          159,
          160,
          161,
          162,
          163,
          164
        ],
        "WindowCenter": [
          1070.0,
          1069.0,
          1068.0,
          1071.0,
          1070.0,
          1068.0,
          1070.0,
          1070.0,
          1069.0,
          1071.0,
          1070.0,
          1069.0,
          1071.0,
          1070.0,
          1070.0,
          1070.0,
          1069.0,
          1070.0,
          1072.0,
          1070.0,
          1073.0,
          1072.0,
          1070.0,
          1071.0,
          1070.0,
          1068.0,
          1072.0,
          1073.0,
          1073.0,
          1071.0,
          1068.0,
          1068.0,
          1073.0,
          1070.0,
          1070.0,
          1072.0,
          1072.0,
          1074.0,
          1071.0,
          1073.0,
          1073.0,
          1073.0,
          1073.0,
          1071.0,
          1072.0,
          1072.0,
          1071.0,
          1072.0,
          1070.0,
          1070.0,
          1070.0,
          1069.0,
          1071.0,
          1069.0,
          1069.0,
          1071.0,
          1071.0,
          1071.0,
          1070.0,
          1069.0,
          1073.0,
          1072.0,
          1070.0,
          1070.0,
          1068.0,
          1073.0,
          1073.0,
          1070.0,
          1071.0,
          1069.0,
          1070.0,
          1072.0,
          1070.0,
          1068.0,
          1073.0,
          1073.0,
          1071.0,
          1073.0,
          1074.0,
          1070.0,
          1074.0,
          1074.0,
          1071.0,
          1073.0,
          1070.0,
          1071.0,
          1074.0,
          1072.0,
          1072.0,
          1072.0,
          1069.0,
          1070.0,
          1073.0,
          1072.0,
          1073.0,
          1072.0,
          1073.0,
          1074.0,
          1072.0,
          1073.0,
          1072.0,
          1072.0,
          1071.0,
          1069.0,
          1070.0,
          1072.0,
          1068.0,
          1071.0,
          1072.0,
          1068.0,
          1071.0,
          1073.0,
          1070.0,
          1071.0,
          1070.0,
          1071.0,
          1073.0,
          1072.0,
          1072.0,
          1073.0,
          1073.0,
          1072.0,
          1074.0,
          1073.0,
          1074.0,
          1073.0,
          1071.0,
          1073.0,
          1073.0,
          1073.0,
          1074.0,
          1072.0,
          1073.0,
          1073.0,
          1072.0,
          1075.0,
          1072.0,
          1073.0,
          1072.0,
          1072.0,
          1073.0,
          1072.0,
          1070.0,
          1070.0,
          1068.0,
          1071.0,
          1071.0,
          1069.0,
          1072.0,
          1071.0,
          1071.0,
          1073.0,
          1073.0,
          1071.0,
          1070.0,
          1074.0,
          1072.0,
          1073.0,
          1073.0,
          1072.0,
          1076.0,
          1077.0,
          1076.0,
          1077.0
        ],
        "WindowWidth": [
          2901.0,
          2894.0,
          2893.0,
          2904.0,
          2895.0,
          2892.0,
          2905.0,
          2903.0,
          2894.0,
          2904.0,
          2899.0,
          2888.0,
          2900.0,
          2895.0,
          2894.0,
          2897.0,
          2892.0,
          2901.0,
          2900.0,
          2895.0,
          2907.0,
          2901.0,
          2894.0,
          2902.0,
          2894.0,
          2892.0,
          2909.0,
          2913.0,
          2905.0,
          2892.0,
          2885.0,
          2894.0,
          2904.0,
          2891.0,
          2895.0,
          2906.0,
          2903.0,
          2905.0,
          2894.0,
          2905.0,
          2905.0,
          2906.0,
          2906.0,
          2896.0,
          2908.0,
          2905.0,
          2898.0,
          2907.0,
          2895.0,
          2902.0,
          2896.0,
          2895.0,
          2901.0,
          2889.0,
          2896.0,
          2905.0,
          2898.0,
          2902.0,
          2893.0,
          2893.0,
          2908.0,
          2899.0,
          2898.0,
          2894.0,
          2887.0,
          2906.0,
          2903.0,
          2894.0,
          2898.0,
          2891.0,
          2892.0,
          2900.0,
          2892.0,
          2893.0,
          2906.0,
          2900.0,
          2894.0,
          2906.0,
          2901.0,
          2892.0,
          2908.0,
          2902.0,
