{
  "aor": 0.0014993292682926828,
  "aqi": 0.005231234878048781,
  "bids_meta": {
    "AcquisitionMatrixPE": 96,
    "AcquisitionNumber": 1,
    "AcquisitionTime": "11:35:34.232500",
    "BandwidthPerPixelPhaseEncode": 52.083,
    "BaseResolution": 96,
    "BodyPartExamined": "HEAD",
    "ConversionSoftware": "dcm2niix",
    "ConversionSoftwareVersion": "v1.0.20180622 GCC6.3.0",
    "DerivedVendorReportedEchoSpacing": 0.000600004,
    "DeviceSerialNumber": "18926",
    "DwellTime": 2.6e-06,
    "EchoTime": 0.025,
    "EffectiveEchoSpacing": 0.000200001,
    "FlipAngle": 50,
    "ImageOrientationPatientDICOM": [
      0.999992,
      0.00067012,
      0.00404905,
      2.11009e-10,
      0.98658,
      -0.16328
    ],
    "ImageType": [
      "ORIGINAL",
      "PRIMARY",
      "M",
      "ND",
      "ECHO",
      "00",
      "MOSAIC"
    ],
    "InPlanePhaseEncodingDirectionDICOM": "ROW",
    "InstitutionName": "NIMH",
    "InstitutionalDepartmentName": "Department",
    "MRAcquisitionType": "2D",
    "MagneticFieldStrength": 6.98,
    "Manufacturer": "Siemens",
    "ManufacturersModelName": "Investigational_Device_7T",
    "Modality": "MR",
    "ParallelReductionFactorInPlane": 3,
    "PartialFourier": 1,
    "PatientPosition": "HFS",
    "PercentPhaseFOV": 100,
    "PhaseEncodingDirection": "i",
    "PhaseEncodingSteps": 94,
    "PhaseResolution": 1,
    "PixelBandwidth": 2003,
    "ProcedureStepDescription": "MRI_Procedure_Limited",
    "ProtocolName": "NIH_EPI_2.0iso_TR2_Run12",
    "PulseSequenceDetails": "%CustomerSeq%_inati_nih_epi",
    "ReceiveCoilName": "32Ch_Head_7T",
    "ReconMatrixPE": 96,
    "RepetitionTime": 2,
    "SAR": 0.0921352,
    "ScanningSequence": "EP",
    "SequenceName": "epfid2d1_96",
    "SequenceVariant": "SK",
    "SeriesDescription": "NIH_EPI_2.0iso_TR2_Run12",
    "SeriesNumber": 16,
    "ShimSetting": [
      -125,
      144,
      1430,
      2389,
      -185,
      -70,
      136,
      -236
    ],
    "SliceThickness": 2,
    "SliceTiming": [
      1.005,
      0,
      1.04,
      0.0375,
      1.0775,
      0.075,
      1.115,
      0.1125,
      1.1525,
      0.15,
      1.19,
      0.185,
      1.2275,
      0.2225,
      1.265,
      0.26,
      1.3025,
      0.2975,
      1.3375,
      0.335,
      1.375,
      0.3725,
      1.4125,
      0.41,
      1.45,
      0.4475,
      1.4875,
      0.4825,
      1.525,
      0.52,
      1.5625,
      0.5575,
      1.6,
      0.595,
      1.635,
      0.6325,
      1.6725,
      0.67,
      1.71,
      0.7075,
      1.7475,
      0.745,
      1.785,
      0.78,
      1.8225,
      0.8175,
      1.86,
      0.855,
      1.8975,
      0.8925,
      1.9325,
      0.93,
      1.97,
      0.9675
    ],
    "SoftwareVersions": "syngo_MR_B17",
    "SpacingBetweenSlices": 2,
    "StationName": "FMRIFD7T",
    "TaskName": "FullFovNoAttentionTask",
    "TotalReadoutTime": 0.0190001,
    "TxRefAmp": 303,
    "dataset": "ds001555",
    "dcmmeta_affine": [
      [
        -1.9999831914901733,
        4.2201880878778297e-10,
        0.008208253420889378,
        95.76705169677734
      ],
      [
        -0.0013402394251897931,
        1.973159670829773,
        -0.32655632495880127,
        -63.118167877197266
      ],
      [
        0.008098097518086433,
        0.32655906677246094,
        1.9731431007385254,
        -38.87153625488281
      ],
      [
        0.0,
        0.0,
        0.0,
        1.0
      ]
    ],
    "dcmmeta_reorient_transform": [
      [
        0.0,
        -1.0,
        0.0,
        95.0
      ],
      [
        1.0,
        0.0,
        0.0,
        0.0
      ],
      [
        0.0,
        0.0,
        1.0,
        0.0
      ],
      [
        0.0,
        0.0,
        0.0,
        1.0
      ]
    ],
    "dcmmeta_shape": [
      96,
      96,
      54,
      164
    ],
    "dcmmeta_slice_dim": 2,
    "dcmmeta_version": 0.6,
    "global": {
      "const": {
        "AcquisitionMatrix": [
          0,
          96,
          96,
          0
        ],
        "Allergies": "No Known Allergies",
        "AngioFlag": "N",
        "BitsAllocated": 16,
        "BitsStored": 12,
        "BodyPartExamined": "HEAD",
        "Columns": 768,
        "EchoNumbers": 1,
        "EchoTime": 25.0,
        "EchoTrainLength": 1,
        "FlipAngle": 50.0,
        "HighBit": 11,
        "ImageOrientationPatient": [
          0.99999157803662,
          0.00067011969073,
          0.00404904870684,
          2.110094e-10,
          0.98657984636313,
          -0.1632795356133
        ],
        "ImagePositionPatient": [
          -767.761392775,
          -787.76398131462,
          99.154463849561
        ],
        "ImageType": [
          "ORIGINAL",
          "PRIMARY",
          "M",
          "ND",
          "ECHO_00",
          "MOSAIC"
        ],
        "ImagedNucleus": "1H",
        "ImagingFrequency": 297.205109,
        "InPlanePhaseEncodingDirection": "ROW",
        "LargestImagePixelValue": 4095,
        "MRAcquisitionType": "2D",
        "MagneticFieldStrength": 6.98,
        "Manufacturer": "SIEMENS",
        "ManufacturerModelName": "Investigational_Device_7T",
        "Modality": "MR",
        "NumberOfAverages": 1.0,
        "NumberOfPhaseEncodingSteps": 94,
        "PercentPhaseFieldOfView": 100.0,
        "PercentSampling": 100.0,
        "PerformedProcedureStepStartTime": "101043.468000",
        "PhotometricInterpretation": "MONOCHROME2",
        "PixelBandwidth": 2003.0,
        "PixelRepresentation": 0,
        "PixelSpacing": [
          2.0,
          2.0
        ],
        "PositionReferenceIndicator": "",
        "ProcedureCodeSequence": [
          {
            "CodeMeaning": "MRI Procedure Limited",
            "CodeValue": "MI01491",
            "CodingSchemeDesignator": "USA Standard",
            "ContextIdentifier": "4000109575"
          }
        ],
        "ProtocolName": "NIH_EPI_2.0iso_TR2_Run12",
        "ReferencedStudySequence": [
          {
            "ReferencedSOPClassUID": "1.2.840.10008.3.1.2.3.1",
            "ReferencedSOPInstanceUID": "1.2.840.113564.9.1.2723958737.61.2.5000075337"
          }
        ],
        "RepetitionTime": 2000.0,
        "RequestedProcedureCodeSequence": [
          {
            "CodeMeaning": "MRI Procedure Limited",
            "CodeValue": "MI01491",
            "CodingSchemeDesignator": "USA Standard",
            "ContextIdentifier": "4000109575"
          }
        ],
        "RequestingService": "MHED",
        "Rows": 768,
        "SAR": 0.09213524071949,
        "SamplesPerPixel": 1,
        "ScanningSequence": "EP",
        "SequenceName": "epfid2d1_96",
        "SequenceVariant": "SK",
        "SeriesDescription": "NIH_EPI_2.0iso_TR2_Run12",
        "SeriesNumber": 16,
        "SliceLocation": -27.650691900607,
        "SliceThickness": 2.0,
        "SmallestImagePixelValue": 0,
        "SoftwareVersions": "syngo MR B17",
        "SpacingBetweenSlices": 1.9999999799801,
        "TransmitCoilName": "32Ch_Head_7T",
        "VariableFlipAngleFlag": "N",
        "WindowCenterWidthExplanation": "Algo1",
        "dBdt": 0.0
      },
      "slices": {}
    },
    "modality": "bold",
    "run_id": 13,
    "session_id": "04",
    "subject_id": "002",
    "task_id": "FullFovNoAttentionTask",
    "time": {
      "samples": {
        "AcquisitionNumber": [
          1,
          2,
          3,
          4,
          5,
          6,
          7,
          8,
          9,
          10,
          11,
          12,
          13,
          14,
          15,
          16,
          17,
          18,
          19,
          20,
          21,
          22,
          23,
          24,
          25,
          26,
          27,
          28,
          29,
          30,
          31,
          32,
          33,
          34,
          35,
          36,
          37,
          38,
          39,
          40,
          41,
          42,
          43,
          44,
          45,
          46,
          47,
          48,
          49,
          50,
          51,
          52,
          53,
          54,
          55,
          56,
          57,
          58,
          59,
          60,
          61,
          62,
          63,
          64,
          65,
          66,
          67,
          68,
          69,
          70,
          71,
          72,
          73,
          74,
          75,
          76,
          77,
          78,
          79,
          80,
          81,
          82,
          83,
          84,
          85,
          86,
          87,
          88,
          89,
          90,
          91,
          92,
          93,
          94,
          95,
          96,
          97,
          98,
          99,
          100,
          101,
          102,
          103,
          104,
          105,
          106,
          107,
          108,
          109,
          110,
          111,
          112,
          113,
          114,
          115,
          116,
          117,
          118,
          119,
          120,
          121,
          122,
          123,
          124,
          125,
          126,
          127,
          128,
          129,
          130,
          131,
          132,
          133,
          134,
          135,
          136,
          137,
          138,
          139,
          140,
          141,
          142,
          143,
          144,
          145,
          146,
          147,
          148,
          149,
          150,
          151,
          152,
          153,
          154,
          155,
          156,
          157,
          158,
          159,
          160,
          161,
          162,
          163,
          164
        ],
        "AcquisitionTime": [
          "113534.232500",
          "113538.247500",
          "113540.255000",
          "113542.262500",
          "113544.272500",
          "113546.280000",
          "113548.287500",
          "113550.295000",
          "113552.305000",
          "113554.312500",
          "113556.320000",
          "113558.327500",
          "113600.335000",
          "113602.345000",
          "113604.352500",
          "113606.360000",
          "113608.367500",
          "113610.375000",
          "113612.385000",
          "113614.392500",
          "113616.400000",
          "113618.407500",
          "113620.417500",
          "113622.425000",
          "113624.432500",
          "113626.440000",
          "113628.447500",
          "113630.457500",
          "113632.465000",
          "113634.472500",
          "113636.480000",
          "113638.487500",
          "113640.497500",
          "113642.505000",
          "113644.512500",
          "113646.520000",
          "113648.527500",
          "113650.537500",
          "113652.545000",
          "113654.552500",
          "113656.560000",
          "113658.570000",
          "113700.577500",
          "113702.585000",
          "113704.592500",
          "113706.600000",
          "113708.610000",
          "113710.617500",
          "113712.625000",
          "113714.632500",
          "113716.640000",
          "113718.650000",
          "113720.657500",
          "113722.665000",
          "113724.672500",
          "113726.682500",
          "113728.690000",
          "113730.697500",
          "113732.705000",
          "113734.712500",
          "113736.722500",
          "113738.730000",
          "113740.737500",
          "113742.745000",
          "113744.752500",
          "113746.762500",
          "113748.770000",
          "113750.777500",
          "113752.785000",
          "113754.795000",
          "113756.802500",
          "113758.810000",
          "113800.817500",
          "113802.825000",
          "113804.835000",
          "113806.842500",
          "113808.850000",
          "113810.857500",
          "113812.865000",
          "113814.875000",
          "113816.882500",
          "113818.890000",
          "113820.897500",
          "113822.905000",
          "113824.915000",
          "113826.922500",
          "113828.930000",
          "113830.937500",
          "113832.947500",
          "113834.955000",
          "113836.962500",
          "113838.970000",
          "113840.977500",
          "113842.987500",
          "113844.995000",
          "113847.002500",
          "113849.010000",
          "113851.017500",
          "113853.027500",
          "113855.035000",
          "113857.042500",
          "113859.050000",
          "113901.060000",
          "113903.067500",
          "113905.075000",
          "113907.082500",
          "113909.090000",
          "113911.100000",
          "113913.107500",
          "113915.115000",
          "113917.122500",
          "113919.130000",
          "113921.140000",
          "113923.147500",
          "113925.155000",
          "113927.162500",
          "113929.172500",
          "113931.180000",
          "113933.187500",
          "113935.195000",
          "113937.202500",
          "113939.212500",
          "113941.220000",
          "113943.227500",
          "113945.235000",
          "113947.242500",
          "113949.252500",
          "113951.260000",
          "113953.267500",
          "113955.275000",
          "113957.285000",
          "113959.292500",
          "114001.300000",
          "114003.307500",
          "114005.315000",
          "114007.325000",
          "114009.332500",
          "114011.340000",
          "114013.347500",
          "114015.355000",
          "114017.365000",
          "114019.372500",
          "114021.380000",
          "114023.387500",
          "114025.395000",
          "114027.405000",
          "114029.412500",
          "114031.420000",
          "114033.427500",
          "114035.437500",
          "114037.445000",
          "114039.452500",
          "114041.460000",
          "114043.467500",
          "114045.477500",
          "114047.485000",
          "114049.492500",
          "114051.500000",
          "114053.507500",
          "114055.517500",
          "114057.525000",
          "114059.532500",
          "114101.540000",
          "114103.550000"
        ],
        "ContentTime": [
          "113632.125000",
          "113632.140000",
          "113632.140000",
          "113632.140000",
          "113632.140000",
          "113632.140000",
          "113632.140000",
          "113632.156000",
          "113632.156000",
          "113632.156000",
          "113632.171000",
          "113632.171000",
          "113632.171000",
          "113632.171000",
          "113632.171000",
          "113632.171000",
          "113632.187000",
          "113632.187000",
          "113632.187000",
          "113632.187000",
          "113632.187000",
          "113632.187000",
          "113632.187000",
          "113632.203000",
          "113632.203000",
          "113632.203000",
          "113632.203000",
          "113712.125000",
          "113712.125000",
          "113712.140000",
          "113712.140000",
          "113712.140000",
          "113712.140000",
          "113712.140000",
          "113712.156000",
          "113712.156000",
          "113712.156000",
          "113712.156000",
          "113712.156000",
          "113712.156000",
          "113712.156000",
          "113712.171000",
          "113712.171000",
          "113712.171000",
          "113712.171000",
          "113712.171000",
          "113712.171000",
          "113752.125000",
          "113752.125000",
          "113752.125000",
          "113752.125000",
          "113752.125000",
          "113752.140000",
          "113752.140000",
          "113752.140000",
          "113752.140000",
          "113752.140000",
          "113752.140000",
          "113752.140000",
          "113752.156000",
          "113752.156000",
          "113752.156000",
          "113752.156000",
          "113752.171000",
          "113752.171000",
          "113752.187000",
          "113752.187000",
          "113832.125000",
          "113832.125000",
          "113832.125000",
          "113832.125000",
          "113832.125000",
          "113832.140000",
          "113832.140000",
          "113832.140000",
          "113832.140000",
          "113832.140000",
          "113832.140000",
          "113832.156000",
          "113832.156000",
          "113832.156000",
          "113832.156000",
          "113832.171000",
          "113832.171000",
          "113832.171000",
          "113832.171000",
          "113832.171000",
          "113912.125000",
          "113912.125000",
          "113912.140000",
          "113912.140000",
          "113912.140000",
          "113912.140000",
          "113912.140000",
          "113912.140000",
          "113912.156000",
          "113912.156000",
          "113912.156000",
          "113912.156000",
          "113912.156000",
          "113912.156000",
          "113912.156000",
          "113912.171000",
          "113912.171000",
          "113912.171000",
          "113912.171000",
          "113912.171000",
          "113952.125000",
          "113952.125000",
          "113952.125000",
          "113952.125000",
          "113952.125000",
          "113952.140000",
          "113952.140000",
          "113952.140000",
          "113952.140000",
          "113952.156000",
          "113952.156000",
          "113952.156000",
          "113952.156000",
          "113952.156000",
          "113952.156000",
          "113952.171000",
          "113952.171000",
          "113952.171000",
          "113952.171000",
          "113952.171000",
          "114032.125000",
          "114032.125000",
          "114032.125000",
          "114032.125000",
          "114032.125000",
          "114032.140000",
          "114032.140000",
          "114032.140000",
          "114032.140000",
          "114032.140000",
          "114032.140000",
          "114032.156000",
          "114032.156000",
          "114032.156000",
          "114032.156000",
          "114032.156000",
          "114032.156000",
          "114032.156000",
          "114032.171000",
          "114032.171000",
          "114104.562000",
          "114104.578000",
          "114104.578000",
          "114104.578000",
          "114104.578000",
          "114104.593000",
          "114104.593000",
          "114104.609000",
          "114104.609000",
          "114104.609000",
          "114104.609000",
          "114104.609000",
          "114104.609000",
          "114104.625000",
          "114104.625000",
          "114104.625000",
          "114104.625000"
        ],
        "InstanceCreationTime": [
          "113632.125000",
          "113632.140000",
          "113632.140000",
          "113632.140000",
          "113632.140000",
          "113632.140000",
          "113632.140000",
          "113632.156000",
          "113632.156000",
          "113632.156000",
          "113632.171000",
          "113632.171000",
          "113632.171000",
          "113632.171000",
          "113632.171000",
          "113632.171000",
          "113632.187000",
          "113632.187000",
          "113632.187000",
          "113632.187000",
          "113632.187000",
          "113632.187000",
          "113632.187000",
          "113632.203000",
          "113632.203000",
          "113632.203000",
          "113632.203000",
          "113712.125000",
          "113712.125000",
          "113712.140000",
          "113712.140000",
          "113712.140000",
          "113712.140000",
          "113712.140000",
          "113712.156000",
          "113712.156000",
          "113712.156000",
          "113712.156000",
          "113712.156000",
          "113712.156000",
          "113712.156000",
          "113712.171000",
          "113712.171000",
          "113712.171000",
          "113712.171000",
          "113712.171000",
          "113712.171000",
          "113752.125000",
          "113752.125000",
          "113752.125000",
          "113752.125000",
          "113752.125000",
          "113752.140000",
          "113752.140000",
          "113752.140000",
          "113752.140000",
          "113752.140000",
          "113752.140000",
          "113752.140000",
          "113752.156000",
          "113752.156000",
          "113752.156000",
          "113752.156000",
          "113752.171000",
          "113752.171000",
          "113752.187000",
          "113752.187000",
          "113832.125000",
          "113832.125000",
          "113832.125000",
          "113832.125000",
          "113832.125000",
          "113832.140000",
          "113832.140000",
          "113832.140000",
          "113832.140000",
          "113832.140000",
          "113832.140000",
          "113832.156000",
          "113832.156000",
          "113832.156000",
          "113832.156000",
          "113832.171000",
          "113832.171000",
          "113832.171000",
          "113832.171000",
          "113832.171000",
          "113912.125000",
          "113912.125000",
          "113912.140000",
          "113912.140000",
          "113912.140000",
          "113912.140000",
          "113912.140000",
          "113912.140000",
          "113912.156000",
          "113912.156000",
          "113912.156000",
          "113912.156000",
          "113912.156000",
          "113912.156000",
          "113912.156000",
          "113912.171000",
          "113912.171000",
          "113912.171000",
          "113912.171000",
          "113912.171000",
          "113952.125000",
          "113952.125000",
          "113952.125000",
          "113952.125000",
          "113952.125000",
          "113952.140000",
          "113952.140000",
          "113952.140000",
          "113952.140000",
          "113952.156000",
          "113952.156000",
          "113952.156000",
          "113952.156000",
          "113952.156000",
          "113952.156000",
          "113952.171000",
          "113952.171000",
          "113952.171000",
          "113952.171000",
          "113952.171000",
          "114032.125000",
          "114032.125000",
          "114032.125000",
          "114032.125000",
          "114032.125000",
          "114032.140000",
          "114032.140000",
          "114032.140000",
          "114032.140000",
          "114032.140000",
          "114032.140000",
          "114032.156000",
          "114032.156000",
          "114032.156000",
          "114032.156000",
          "114032.156000",
          "114032.156000",
          "114032.156000",
          "114032.171000",
          "114032.171000",
          "114104.562000",
          "114104.578000",
          "114104.578000",
          "114104.578000",
          "114104.578000",
          "114104.593000",
          "114104.593000",
          "114104.609000",
          "114104.609000",
          "114104.609000",
          "114104.609000",
          "114104.609000",
          "114104.609000",
          "114104.625000",
          "114104.625000",
          "114104.625000",
          "114104.625000"
        ],
        "InstanceNumber": [
          1,
          2,
          3,
          4,
          5,
          6,
          7,
          8,
          9,
          10,
          11,
          12,
          13,
          14,
          15,
          16,
          17,
          18,
          19,
          20,
          21,
          22,
          23,
          24,
          25,
          26,
          27,
          28,
          29,
          30,
          31,
          32,
          33,
          34,
          35,
          36,
          37,
          38,
          39,
          40,
          41,
          42,
          43,
          44,
          45,
          46,
          47,
          48,
          49,
          50,
          51,
          52,
          53,
          54,
          55,
          56,
          57,
          58,
          59,
          60,
          61,
          62,
          63,
          64,
          65,
          66,
          67,
          68,
          69,
          70,
          71,
          72,
          73,
          74,
          75,
          76,
          77,
          78,
          79,
          80,
          81,
          82,
          83,
          84,
          85,
          86,
          87,
          88,
          89,
          90,
          91,
          92,
          93,
          94,
          95,
          96,
          97,
          98,
          99,
          100,
          101,
          102,
          103,
          104,
          105,
          106,
          107,
          108,
          109,
          110,
          111,
          112,
          113,
          114,
          115,
          116,
          117,
          118,
          119,
          120,
          121,
          122,
          123,
          124,
          125,
          126,
          127,
          128,
          129,
          130,
          131,
          132,
          133,
          134,
          135,
          136,
          137,
          138,
          139,
          140,
          141,
          142,
          143,
          144,
          145,
          146,
          147,
          148,
          149,
          150,
          151,
          152,
          153,
          154,
          155,
          156,
          157,
          158,
          159,
          160,
          161,
          162,
          163,
          164
        ],
        "WindowCenter": [
          1070.0,
          1072.0,
          1071.0,
          1070.0,
          1071.0,
          1071.0,
          1070.0,
          1073.0,
          1072.0,
          1072.0,
          1071.0,
          1068.0,
          1069.0,
          1073.0,
          1070.0,
          1069.0,
          1071.0,
          1070.0,
          1071.0,
          1074.0,
          1069.0,
          1069.0,
          1072.0,
          1073.0,
          1069.0,
          1071.0,
          1071.0,
          1069.0,
          1071.0,
          1073.0,
          1071.0,
          1073.0,
          1073.0,
          1069.0,
          1068.0,
          1072.0,
          1071.0,
          1071.0,
          1073.0,
          1070.0,
          1072.0,
          1074.0,
          1071.0,
          1071.0,
          1072.0,
          1071.0,
          1071.0,
          1074.0,
          1070.0,
          1069.0,
          1070.0,
          1071.0,
          1071.0,
          1072.0,
          1070.0,
          1069.0,
          1069.0,
          1068.0,
          1070.0,
          1070.0,
          1068.0,
          1072.0,
          1069.0,
          1070.0,
          1070.0,
          1068.0,
          1071.0,
          1071.0,
          1072.0,
          1071.0,
          1071.0,
          1072.0,
          1070.0,
          1069.0,
          1072.0,
          1071.0,
          1071.0,
          1073.0,
          1070.0,
          1070.0,
          1070.0,
          1071.0,
          1068.0,
          1071.0,
          1073.0,
          1071.0,
          1073.0,
          1071.0,
          1073.0,
          1073.0,
          1073.0,
          1074.0,
          1072.0,
          1071.0,
          1074.0,
          1074.0,
          1071.0,
          1072.0,
          1072.0,
          1070.0,
          1072.0,
          1073.0,
          1075.0,
          1073.0,
          1071.0,
          1074.0,
          1073.0,
          1073.0,
          1074.0,
          1073.0,
          1073.0,
          1071.0,
          1071.0,
          1076.0,
          1072.0,
          1072.0,
          1071.0,
          1072.0,
          1074.0,
          1071.0,
          1073.0,
          1072.0,
          1070.0,
          1074.0,
          1073.0,
          1074.0,
          1076.0,
          1072.0,
          1073.0,
          1075.0,
          1074.0,
          1073.0,
          1071.0,
          1073.0,
          1074.0,
          1075.0,
          1073.0,
          1071.0,
          1072.0,
          1073.0,
          1071.0,
          1072.0,
          1075.0,
          1072.0,
          1072.0,
          1074.0,
          1076.0,
          1073.0,
          1073.0,
          1073.0,
          1070.0,
          1071.0,
          1073.0,
          1071.0,
          1070.0,
          1071.0,
          1070.0,
          1071.0,
          1073.0,
          1071.0,
          1073.0,
          1078.0,
          1075.0,
          1076.0
        ],
        "WindowWidth": [
          2896.0,
          2911.0,
          2900.0,
          2889.0,
          2904.0,
          2904.0,
          2896.0,
          2909.0,
          2906.0,
          2908.0,
          2902.0,
          2894.0,
          2899.0,
          2906.0,
          2892.0,
          2895.0,
          2900.0,
          2892.0,
          2898.0,
          2904.0,
          2893.0,
          2889.0,
          2908.0,
          2905.0,
          2898.0,
          2905.0,
          2900.0,
          2893.0,
          2906.0,
          2907.0,
          2901.0,
          2904.0,
          2906.0,
          2891.0,
          2889.0,
          2906.0,
          2899.0,
          2902.0,
          2904.0,
          2893.0,
          2903.0,
          2912.0,
          2902.0,
          2892.0,
          2904.0,
          2902.0,
          2901.0,
          2911.0,
          2896.0,
          2888.0,
          2902.0,
          2900.0,
          2903.0,
          2904.0,
          2894.0,
          2896.0,
          2900.0,
          2892.0,
          2898.0,
          2892.0,
          2896.0,
          2903.0,
          2893.0,
          2898.0,
          2896.0,
          2890.0,
          2906.0,
          2901.0,
          2903.0,
          2903.0,
          2901.0,
          2910.0,
          2904.0,
          2895.0,
          2909.0,
          2907.0,
          2905.0,
          2908.0,
          2902.0,
          2897.0,
          2900.0,
          2901.0,
