{
  "aor": 0.002366219512195122,
  "aqi": 0.00501854274390244,
  "bids_meta": {
    "AcquisitionMatrixPE": 96,
    "AcquisitionNumber": 1,
    "AcquisitionTime": "11:29:24.662500",
    "BandwidthPerPixelPhaseEncode": 52.083,
    "BaseResolution": 96,
    "BodyPartExamined": "HEAD",
    "ConversionSoftware": "dcm2niix",
    "ConversionSoftwareVersion": "v1.0.20180622 GCC6.3.0",
    "DerivedVendorReportedEchoSpacing": 0.000600004,
    "DeviceSerialNumber": "18926",
    "DwellTime": 2.6e-06,
    "EchoTime": 0.025,
    "EffectiveEchoSpacing": 0.000200001,
    "FlipAngle": 50,
    "ImageOrientationPatientDICOM": [
      0.999992,
      0.00067012,
      0.00404905,
      2.11009e-10,
      0.98658,
      -0.16328
    ],
    "ImageType": [
      "ORIGINAL",
      "PRIMARY",
      "M",
      "ND",
      "ECHO",
      "00",
      "MOSAIC"
    ],
    "InPlanePhaseEncodingDirectionDICOM": "ROW",
    "InstitutionName": "NIMH",
    "InstitutionalDepartmentName": "Department",
    "MRAcquisitionType": "2D",
    "MagneticFieldStrength": 6.98,
    "Manufacturer": "Siemens",
    "ManufacturersModelName": "Investigational_Device_7T",
    "Modality": "MR",
    "ParallelReductionFactorInPlane": 3,
    "PartialFourier": 1,
    "PatientPosition": "HFS",
    "PercentPhaseFOV": 100,
    "PhaseEncodingDirection": "i",
    "PhaseEncodingSteps": 94,
    "PhaseResolution": 1,
    "PixelBandwidth": 2003,
    "ProcedureStepDescription": "MRI_Procedure_Limited",
    "ProtocolName": "NIH_EPI_2.0iso_TR2_Run11",
    "PulseSequenceDetails": "%CustomerSeq%_inati_nih_epi",
    "ReceiveCoilName": "32Ch_Head_7T",
    "ReconMatrixPE": 96,
    "RepetitionTime": 2,
    "SAR": 0.0921352,
    "ScanningSequence": "EP",
    "SequenceName": "epfid2d1_96",
    "SequenceVariant": "SK",
    "SeriesDescription": "NIH_EPI_2.0iso_TR2_Run11",
    "SeriesNumber": 15,
    "ShimSetting": [
      -125,
      144,
      1430,
      2389,
      -185,
      -70,
      136,
      -236
    ],
    "SliceThickness": 2,
    "SliceTiming": [
      1.0025,
      0,
      1.04,
      0.035,
      1.0775,
      0.0725,
      1.115,
      0.11,
      1.1525,
      0.1475,
      1.1875,
      0.185,
      1.225,
      0.2225,
      1.2625,
      0.26,
      1.3,
      0.295,
      1.3375,
      0.3325,
      1.375,
      0.37,
      1.4125,
      0.4075,
      1.4475,
      0.445,
      1.485,
      0.4825,
      1.5225,
      0.52,
      1.56,
      0.5575,
      1.5975,
      0.5925,
      1.635,
      0.63,
      1.6725,
      0.6675,
      1.71,
      0.705,
      1.745,
      0.7425,
      1.7825,
      0.78,
      1.82,
      0.8175,
      1.8575,
      0.855,
      1.895,
      0.89,
      1.9325,
      0.9275,
      1.97,
      0.965
    ],
    "SoftwareVersions": "syngo_MR_B17",
    "SpacingBetweenSlices": 2,
    "StationName": "FMRIFD7T",
    "TaskName": "FullFovNoAttentionTask",
    "TotalReadoutTime": 0.0190001,
    "TxRefAmp": 303,
    "dataset": "ds001555",
    "dcmmeta_affine": [
      [
        -1.9999831914901733,
        4.2201880878778297e-10,
        0.008208253420889378,
        95.76705169677734
      ],
      [
        -0.0013402394251897931,
        1.973159670829773,
        -0.32655632495880127,
        -63.118167877197266
      ],
      [
        0.008098097518086433,
        0.32655906677246094,
        1.9731431007385254,
        -38.87153625488281
      ],
      [
        0.0,
        0.0,
        0.0,
        1.0
      ]
    ],
    "dcmmeta_reorient_transform": [
      [
        0.0,
        -1.0,
        0.0,
        95.0
      ],
      [
        1.0,
        0.0,
        0.0,
        0.0
      ],
      [
        0.0,
        0.0,
        1.0,
        0.0
      ],
      [
        0.0,
        0.0,
        0.0,
        1.0
      ]
    ],
    "dcmmeta_shape": [
      96,
      96,
      54,
      164
    ],
    "dcmmeta_slice_dim": 2,
    "dcmmeta_version": 0.6,
    "global": {
      "const": {
        "AcquisitionMatrix": [
          0,
          96,
          96,
          0
        ],
        "Allergies": "No Known Allergies",
        "AngioFlag": "N",
        "BitsAllocated": 16,
        "BitsStored": 12,
        "BodyPartExamined": "HEAD",
        "Columns": 768,
        "EchoNumbers": 1,
        "EchoTime": 25.0,
        "EchoTrainLength": 1,
        "FlipAngle": 50.0,
        "HighBit": 11,
        "ImageOrientationPatient": [
          0.99999157803662,
          0.00067011969073,
          0.00404904870684,
          2.110094e-10,
          0.98657984636313,
          -0.1632795356133
        ],
        "ImagePositionPatient": [
          -767.761392775,
          -787.76398131462,
          99.154463849561
        ],
        "ImageType": [
          "ORIGINAL",
          "PRIMARY",
          "M",
          "ND",
          "ECHO_00",
          "MOSAIC"
        ],
        "ImagedNucleus": "1H",
        "ImagingFrequency": 297.205091,
        "InPlanePhaseEncodingDirection": "ROW",
        "LargestImagePixelValue": 4095,
        "MRAcquisitionType": "2D",
        "MagneticFieldStrength": 6.98,
        "Manufacturer": "SIEMENS",
        "ManufacturerModelName": "Investigational_Device_7T",
        "Modality": "MR",
        "NumberOfAverages": 1.0,
        "NumberOfPhaseEncodingSteps": 94,
        "PercentPhaseFieldOfView": 100.0,
        "PercentSampling": 100.0,
        "PerformedProcedureStepStartTime": "101043.468000",
        "PhotometricInterpretation": "MONOCHROME2",
        "PixelBandwidth": 2003.0,
        "PixelRepresentation": 0,
        "PixelSpacing": [
          2.0,
          2.0
        ],
        "PositionReferenceIndicator": "",
        "ProcedureCodeSequence": [
          {
            "CodeMeaning": "MRI Procedure Limited",
            "CodeValue": "MI01491",
            "CodingSchemeDesignator": "USA Standard",
            "ContextIdentifier": "4000109575"
          }
        ],
        "ProtocolName": "NIH_EPI_2.0iso_TR2_Run11",
        "ReferencedStudySequence": [
          {
            "ReferencedSOPClassUID": "1.2.840.10008.3.1.2.3.1",
            "ReferencedSOPInstanceUID": "1.2.840.113564.9.1.2723958737.61.2.5000075337"
          }
        ],
        "RepetitionTime": 2000.0,
        "RequestedProcedureCodeSequence": [
          {
            "CodeMeaning": "MRI Procedure Limited",
            "CodeValue": "MI01491",
            "CodingSchemeDesignator": "USA Standard",
            "ContextIdentifier": "4000109575"
          }
        ],
        "RequestingService": "MHED",
        "Rows": 768,
        "SAR": 0.09213524071949,
        "SamplesPerPixel": 1,
        "ScanningSequence": "EP",
        "SequenceName": "epfid2d1_96",
        "SequenceVariant": "SK",
        "SeriesDescription": "NIH_EPI_2.0iso_TR2_Run11",
        "SeriesNumber": 15,
        "SliceLocation": -27.650691900607,
        "SliceThickness": 2.0,
        "SmallestImagePixelValue": 0,
        "SoftwareVersions": "syngo MR B17",
        "SpacingBetweenSlices": 1.9999999799801,
        "TransmitCoilName": "32Ch_Head_7T",
        "VariableFlipAngleFlag": "N",
        "WindowCenterWidthExplanation": "Algo1",
        "dBdt": 0.0
      },
      "slices": {}
    },
    "modality": "bold",
    "run_id": 12,
    "session_id": "04",
    "subject_id": "002",
    "task_id": "FullFovNoAttentionTask",
    "time": {
      "samples": {
        "AcquisitionNumber": [
          1,
          2,
          3,
          4,
          5,
          6,
          7,
          8,
          9,
          10,
          11,
          12,
          13,
          14,
          15,
          16,
          17,
          18,
          19,
          20,
          21,
          22,
          23,
          24,
          25,
          26,
          27,
          28,
          29,
          30,
          31,
          32,
          33,
          34,
          35,
          36,
          37,
          38,
          39,
          40,
          41,
          42,
          43,
          44,
          45,
          46,
          47,
          48,
          49,
          50,
          51,
          52,
          53,
          54,
          55,
          56,
          57,
          58,
          59,
          60,
          61,
          62,
          63,
          64,
          65,
          66,
          67,
          68,
          69,
          70,
          71,
          72,
          73,
          74,
          75,
          76,
          77,
          78,
          79,
          80,
          81,
          82,
          83,
          84,
          85,
          86,
          87,
          88,
          89,
          90,
          91,
          92,
          93,
          94,
          95,
          96,
          97,
          98,
          99,
          100,
          101,
          102,
          103,
          104,
          105,
          106,
          107,
          108,
          109,
          110,
          111,
          112,
          113,
          114,
          115,
          116,
          117,
          118,
          119,
          120,
          121,
          122,
          123,
          124,
          125,
          126,
          127,
          128,
          129,
          130,
          131,
          132,
          133,
          134,
          135,
          136,
          137,
          138,
          139,
          140,
          141,
          142,
          143,
          144,
          145,
          146,
          147,
          148,
          149,
          150,
          151,
          152,
          153,
          154,
          155,
          156,
          157,
          158,
          159,
          160,
          161,
          162,
          163,
          164
        ],
        "AcquisitionTime": [
          "112924.662500",
          "112928.677500",
          "112930.687500",
          "112932.695000",
          "112934.702500",
          "112936.710000",
          "112938.720000",
          "112940.727500",
          "112942.735000",
          "112944.742500",
          "112946.750000",
          "112948.760000",
          "112950.767500",
          "112952.775000",
          "112954.782500",
          "112956.790000",
          "112958.800000",
          "113000.807500",
          "113002.815000",
          "113004.822500",
          "113006.832500",
          "113008.840000",
          "113010.847500",
          "113012.855000",
          "113014.862500",
          "113016.872500",
          "113018.880000",
          "113020.887500",
          "113022.895000",
          "113024.902500",
          "113026.912500",
          "113028.920000",
          "113030.927500",
          "113032.935000",
          "113034.942500",
          "113036.952500",
          "113038.960000",
          "113040.967500",
          "113042.975000",
          "113044.985000",
          "113046.992500",
          "113049.000000",
          "113051.007500",
          "113053.015000",
          "113055.025000",
          "113057.032500",
          "113059.040000",
          "113101.047500",
          "113103.055000",
          "113105.065000",
          "113107.072500",
          "113109.080000",
          "113111.087500",
          "113113.097500",
          "113115.105000",
          "113117.112500",
          "113119.120000",
          "113121.127500",
          "113123.137500",
          "113125.145000",
          "113127.152500",
          "113129.160000",
          "113131.167500",
          "113133.177500",
          "113135.185000",
          "113137.192500",
          "113139.200000",
          "113141.210000",
          "113143.217500",
          "113145.225000",
          "113147.232500",
          "113149.240000",
          "113151.250000",
          "113153.257500",
          "113155.265000",
          "113157.272500",
          "113159.280000",
          "113201.290000",
          "113203.297500",
          "113205.305000",
          "113207.312500",
          "113209.320000",
          "113211.330000",
          "113213.337500",
          "113215.345000",
          "113217.352500",
          "113219.362500",
          "113221.370000",
          "113223.377500",
          "113225.385000",
          "113227.392500",
          "113229.402500",
          "113231.410000",
          "113233.417500",
          "113235.425000",
          "113237.432500",
          "113239.442500",
          "113241.450000",
          "113243.457500",
          "113245.465000",
          "113247.475000",
          "113249.482500",
          "113251.490000",
          "113253.497500",
          "113255.505000",
          "113257.515000",
          "113259.522500",
          "113301.530000",
          "113303.537500",
          "113305.545000",
          "113307.555000",
          "113309.562500",
          "113311.570000",
          "113313.577500",
          "113315.587500",
          "113317.595000",
          "113319.602500",
          "113321.610000",
          "113323.617500",
          "113325.627500",
          "113327.635000",
          "113329.642500",
          "113331.650000",
          "113333.657500",
          "113335.667500",
          "113337.675000",
          "113339.682500",
          "113341.690000",
          "113343.697500",
          "113345.707500",
          "113347.715000",
          "113349.722500",
          "113351.730000",
          "113353.740000",
          "113355.747500",
          "113357.755000",
          "113359.762500",
          "113401.770000",
          "113403.780000",
          "113405.787500",
          "113407.795000",
          "113409.802500",
          "113411.810000",
          "113413.820000",
          "113415.827500",
          "113417.835000",
          "113419.842500",
          "113421.852500",
          "113423.860000",
          "113425.867500",
          "113427.875000",
          "113429.882500",
          "113431.892500",
          "113433.900000",
          "113435.907500",
          "113437.915000",
          "113439.922500",
          "113441.932500",
          "113443.940000",
          "113445.947500",
          "113447.955000",
          "113449.965000",
          "113451.972500",
          "113453.980000"
        ],
        "ContentTime": [
          "113011.000000",
          "113011.015000",
          "113011.015000",
          "113011.031000",
          "113011.046000",
          "113011.046000",
          "113011.046000",
          "113011.046000",
          "113011.062000",
          "113011.062000",
          "113011.062000",
          "113011.062000",
          "113011.078000",
          "113011.078000",
          "113011.078000",
          "113011.093000",
          "113011.093000",
          "113011.093000",
          "113011.093000",
          "113011.093000",
          "113011.093000",
          "113011.093000",
          "113051.000000",
          "113051.000000",
          "113051.015000",
          "113051.031000",
          "113051.031000",
          "113051.046000",
          "113051.046000",
          "113051.046000",
          "113051.046000",
          "113051.062000",
          "113051.062000",
          "113051.062000",
          "113051.078000",
          "113051.078000",
          "113051.093000",
          "113051.093000",
          "113051.109000",
          "113051.125000",
          "113051.125000",
          "113051.140000",
          "113131.000000",
          "113131.000000",
          "113131.000000",
          "113131.015000",
          "113131.015000",
          "113131.015000",
          "113131.015000",
          "113131.031000",
          "113131.031000",
          "113131.046000",
          "113131.046000",
          "113131.046000",
          "113131.046000",
          "113131.062000",
          "113131.062000",
          "113131.078000",
          "113131.078000",
          "113131.093000",
          "113131.093000",
          "113131.093000",
          "113211.000000",
          "113211.015000",
          "113211.031000",
          "113211.031000",
          "113211.031000",
          "113211.046000",
          "113211.062000",
          "113211.062000",
          "113211.062000",
          "113211.078000",
          "113211.078000",
          "113211.078000",
          "113211.078000",
          "113211.078000",
          "113211.093000",
          "113211.109000",
          "113211.125000",
          "113211.140000",
          "113211.156000",
          "113211.171000",
          "113251.000000",
          "113251.000000",
          "113251.000000",
          "113251.015000",
          "113251.015000",
          "113251.015000",
          "113251.031000",
          "113251.031000",
          "113251.046000",
          "113251.062000",
          "113251.062000",
          "113251.062000",
          "113251.062000",
          "113251.062000",
          "113251.078000",
          "113251.078000",
          "113251.078000",
          "113251.093000",
          "113251.093000",
          "113251.109000",
          "113331.000000",
          "113331.000000",
          "113331.015000",
          "113331.015000",
          "113331.031000",
          "113331.046000",
          "113331.046000",
          "113331.062000",
          "113331.078000",
          "113331.093000",
          "113331.093000",
          "113331.093000",
          "113331.093000",
          "113331.109000",
          "113331.109000",
          "113331.109000",
          "113331.109000",
          "113331.109000",
          "113331.125000",
          "113331.125000",
          "113411.000000",
          "113411.000000",
          "113411.000000",
          "113411.000000",
          "113411.000000",
          "113411.015000",
          "113411.015000",
          "113411.015000",
          "113411.015000",
          "113411.031000",
          "113411.031000",
          "113411.046000",
          "113411.046000",
          "113411.062000",
          "113411.062000",
          "113411.062000",
          "113411.078000",
          "113411.093000",
          "113411.109000",
          "113411.125000",
          "113451.000000",
          "113451.000000",
          "113451.000000",
          "113451.015000",
          "113451.015000",
          "113451.015000",
          "113451.031000",
          "113451.031000",
          "113451.031000",
          "113451.031000",
          "113451.046000",
          "113451.046000",
          "113451.046000",
          "113451.046000",
          "113451.046000",
          "113451.062000",
          "113451.062000",
          "113451.062000",
          "113451.078000",
          "113451.078000",
          "113454.781000",
          "113454.796000"
        ],
        "InstanceCreationTime": [
          "113011.000000",
          "113011.015000",
          "113011.015000",
          "113011.031000",
          "113011.046000",
          "113011.046000",
          "113011.046000",
          "113011.046000",
          "113011.062000",
          "113011.062000",
          "113011.062000",
          "113011.062000",
          "113011.078000",
          "113011.078000",
          "113011.078000",
          "113011.093000",
          "113011.093000",
          "113011.093000",
          "113011.093000",
          "113011.093000",
          "113011.093000",
          "113011.093000",
          "113051.000000",
          "113051.000000",
          "113051.015000",
          "113051.031000",
          "113051.031000",
          "113051.046000",
          "113051.046000",
          "113051.046000",
          "113051.046000",
          "113051.062000",
          "113051.062000",
          "113051.062000",
          "113051.078000",
          "113051.078000",
          "113051.093000",
          "113051.093000",
          "113051.109000",
          "113051.125000",
          "113051.125000",
          "113051.140000",
          "113131.000000",
          "113131.000000",
          "113131.000000",
          "113131.015000",
          "113131.015000",
          "113131.015000",
          "113131.015000",
          "113131.031000",
          "113131.031000",
          "113131.046000",
          "113131.046000",
          "113131.046000",
          "113131.046000",
          "113131.062000",
          "113131.062000",
          "113131.078000",
          "113131.078000",
          "113131.093000",
          "113131.093000",
          "113131.093000",
          "113211.000000",
          "113211.015000",
          "113211.031000",
          "113211.031000",
          "113211.031000",
          "113211.046000",
          "113211.062000",
          "113211.062000",
          "113211.062000",
          "113211.078000",
          "113211.078000",
          "113211.078000",
          "113211.078000",
          "113211.078000",
          "113211.093000",
          "113211.109000",
          "113211.125000",
          "113211.140000",
          "113211.156000",
          "113211.171000",
          "113251.000000",
          "113251.000000",
          "113251.000000",
          "113251.015000",
          "113251.015000",
          "113251.015000",
          "113251.031000",
          "113251.031000",
          "113251.046000",
          "113251.062000",
          "113251.062000",
          "113251.062000",
          "113251.062000",
          "113251.062000",
          "113251.078000",
          "113251.078000",
          "113251.078000",
          "113251.093000",
          "113251.093000",
          "113251.109000",
          "113331.000000",
          "113331.000000",
          "113331.015000",
          "113331.015000",
          "113331.031000",
          "113331.046000",
          "113331.046000",
          "113331.062000",
          "113331.078000",
          "113331.093000",
          "113331.093000",
          "113331.093000",
          "113331.093000",
          "113331.109000",
          "113331.109000",
          "113331.109000",
          "113331.109000",
          "113331.109000",
          "113331.125000",
          "113331.125000",
          "113411.000000",
          "113411.000000",
          "113411.000000",
          "113411.000000",
          "113411.000000",
          "113411.015000",
          "113411.015000",
          "113411.015000",
          "113411.015000",
          "113411.031000",
          "113411.031000",
          "113411.046000",
          "113411.046000",
          "113411.062000",
          "113411.062000",
          "113411.062000",
          "113411.078000",
          "113411.093000",
          "113411.109000",
          "113411.125000",
          "113451.000000",
          "113451.000000",
          "113451.000000",
          "113451.015000",
          "113451.015000",
          "113451.015000",
          "113451.031000",
          "113451.031000",
          "113451.031000",
          "113451.031000",
          "113451.046000",
          "113451.046000",
          "113451.046000",
          "113451.046000",
          "113451.046000",
          "113451.062000",
          "113451.062000",
          "113451.062000",
          "113451.078000",
          "113451.078000",
          "113454.781000",
          "113454.796000"
        ],
        "InstanceNumber": [
          1,
          2,
          3,
          4,
          5,
          6,
          7,
          8,
          9,
          10,
          11,
          12,
          13,
          14,
          15,
          16,
          17,
          18,
          19,
          20,
          21,
          22,
          23,
          24,
          25,
          26,
          27,
          28,
          29,
          30,
          31,
          32,
          33,
          34,
          35,
          36,
          37,
          38,
          39,
          40,
          41,
          42,
          43,
          44,
          45,
          46,
          47,
          48,
          49,
          50,
          51,
          52,
          53,
          54,
          55,
          56,
          57,
          58,
          59,
          60,
          61,
          62,
          63,
          64,
          65,
          66,
          67,
          68,
          69,
          70,
          71,
          72,
          73,
          74,
          75,
          76,
          77,
          78,
          79,
          80,
          81,
          82,
          83,
          84,
          85,
          86,
          87,
          88,
          89,
          90,
          91,
          92,
          93,
          94,
          95,
          96,
          97,
          98,
          99,
          100,
          101,
          102,
          103,
          104,
          105,
          106,
          107,
          108,
          109,
          110,
          111,
          112,
          113,
          114,
          115,
          116,
          117,
          118,
          119,
          120,
          121,
          122,
          123,
          124,
          125,
          126,
          127,
          128,
          129,
          130,
          131,
          132,
          133,
          134,
          135,
          136,
          137,
          138,
          139,
          140,
          141,
          142,
          143,
          144,
          145,
          146,
          147,
          148,
          149,
          150,
          151,
          152,
          153,
          154,
          155,
          156,
          157,
          158,
          159,
          160,
          161,
          162,
          163,
          164
        ],
        "WindowCenter": [
          1068.0,
          1070.0,
          1073.0,
          1074.0,
          1068.0,
          1069.0,
          1073.0,
          1070.0,
          1067.0,
          1071.0,
          1072.0,
          1069.0,
          1068.0,
          1071.0,
          1068.0,
          1068.0,
          1072.0,
          1071.0,
          1070.0,
          1072.0,
          1069.0,
          1070.0,
          1072.0,
          1069.0,
          1070.0,
          1071.0,
          1069.0,
          1070.0,
          1070.0,
          1068.0,
          1072.0,
          1073.0,
          1070.0,
          1070.0,
          1069.0,
          1070.0,
          1070.0,
          1072.0,
          1071.0,
          1069.0,
          1072.0,
          1073.0,
          1071.0,
          1072.0,
          1070.0,
          1072.0,
          1072.0,
          1071.0,
          1075.0,
          1072.0,
          1070.0,
          1070.0,
          1068.0,
          1070.0,
          1070.0,
          1068.0,
          1071.0,
          1073.0,
          1071.0,
          1069.0,
          1072.0,
          1070.0,
          1068.0,
          1072.0,
          1073.0,
          1071.0,
          1069.0,
          1073.0,
          1070.0,
          1068.0,
          1069.0,
          1073.0,
          1071.0,
          1069.0,
          1072.0,
          1073.0,
          1070.0,
          1071.0,
          1074.0,
          1072.0,
          1070.0,
          1073.0,
          1072.0,
          1070.0,
          1071.0,
          1074.0,
          1072.0,
          1072.0,
          1072.0,
          1068.0,
          1071.0,
          1069.0,
          1070.0,
          1071.0,
          1071.0,
          1070.0,
          1071.0,
          1071.0,
          1072.0,
          1075.0,
          1073.0,
          1072.0,
          1070.0,
          1071.0,
          1075.0,
          1074.0,
          1072.0,
          1072.0,
          1070.0,
          1071.0,
          1074.0,
          1071.0,
          1072.0,
          1073.0,
          1071.0,
          1071.0,
          1073.0,
          1070.0,
          1074.0,
          1072.0,
          1072.0,
          1073.0,
          1072.0,
          1072.0,
          1069.0,
          1069.0,
          1071.0,
          1073.0,
          1072.0,
          1070.0,
          1074.0,
          1072.0,
          1071.0,
          1072.0,
          1069.0,
          1072.0,
          1072.0,
          1073.0,
          1071.0,
          1071.0,
          1072.0,
          1072.0,
          1070.0,
          1071.0,
          1069.0,
          1070.0,
          1073.0,
          1072.0,
          1070.0,
          1069.0,
          1072.0,
          1073.0,
          1072.0,
          1068.0,
          1071.0,
          1072.0,
          1069.0,
          1071.0,
          1072.0,
          1070.0,
          1072.0,
          1077.0,
          1074.0,
          1074.0
        ],
        "WindowWidth": [
          2890.0,
          2899.0,
          2913.0,
          2902.0,
          2889.0,
          2904.0,
          2911.0,
          2899.0,
          2895.0,
          2908.0,
          2904.0,
          2892.0,
          2901.0,
          2908.0,
          2895.0,
          2894.0,
          2908.0,
          2899.0,
          2901.0,
          2904.0,
          2892.0,
          2900.0,
          2906.0,
          2895.0,
          2906.0,
          2903.0,
          2896.0,
          2903.0,
          2897.0,
          2891.0,
          2907.0,
          2905.0,
          2896.0,
          2904.0,
          2892.0,
          2902.0,
          2905.0,
          2908.0,
          2900.0,
          2896.0,
          2909.0,
          2900.0,
          2906.0,
          2909.0,
          2898.0,
          2909.0,
          2905.0,
          2906.0,
          2922.0,
          2904.0,
          2895.0,
          2894.0,
          2889.0,
          2904.0,
          2901.0,
          2892.0,
          2900.0,
          2909.0,
          2896.0,
          2897.0,
          2906.0,
          2895.0,
          2897.0,
          2911.0,
          2907.0,
          2898.0,
          2902.0,
          2908.0,
          2899.0,
          2892.0,
          2902.0,
          2912.0,
          2900.0,
          2898.0,
          2909.0,
          2903.0,
          2899.0,
          2908.0,
          2909.0,
          2898.0,
          2899.0,
          2910.0,
