{
  "aor": 0.0011354268292682926,
  "aqi": 0.006985187926829269,
  "bids_meta": {
    "AcquisitionMatrixPE": 96,
    "AcquisitionNumber": 1,
    "AcquisitionTime": "10:33:31.070000",
    "BandwidthPerPixelPhaseEncode": 52.083,
    "BaseResolution": 96,
    "BodyPartExamined": "HEAD",
    "ConversionSoftware": "dcm2niix",
    "ConversionSoftwareVersion": "v1.0.20180622 GCC6.3.0",
    "DerivedVendorReportedEchoSpacing": 0.000600004,
    "DeviceSerialNumber": "18926",
    "DwellTime": 2.6e-06,
    "EchoTime": 0.025,
    "EffectiveEchoSpacing": 0.000200001,
    "FlipAngle": 50,
    "ImageOrientationPatientDICOM": [
      0.999992,
      0.00067012,
      0.00404905,
      2.11009e-10,
      0.98658,
      -0.16328
    ],
    "ImageType": [
      "ORIGINAL",
      "PRIMARY",
      "M",
      "ND",
      "ECHO",
      "00",
      "MOSAIC"
    ],
    "InPlanePhaseEncodingDirectionDICOM": "ROW",
    "InstitutionName": "NIMH",
    "InstitutionalDepartmentName": "Department",
    "MRAcquisitionType": "2D",
    "MagneticFieldStrength": 6.98,
    "Manufacturer": "Siemens",
    "ManufacturersModelName": "Investigational_Device_7T",
    "Modality": "MR",
    "ParallelReductionFactorInPlane": 3,
    "PartialFourier": 1,
    "PatientPosition": "HFS",
    "PercentPhaseFOV": 100,
    "PhaseEncodingDirection": "i",
    "PhaseEncodingSteps": 94,
    "PhaseResolution": 1,
    "PixelBandwidth": 2003,
    "ProcedureStepDescription": "MRI_Procedure_Limited",
    "ProtocolName": "NIH_EPI_2.0iso_TR2_Run02",
    "PulseSequenceDetails": "%CustomerSeq%_inati_nih_epi",
    "ReceiveCoilName": "32Ch_Head_7T",
    "ReconMatrixPE": 96,
    "RepetitionTime": 2,
    "SAR": 0.0921352,
    "ScanningSequence": "EP",
    "SequenceName": "epfid2d1_96",
    "SequenceVariant": "SK",
    "SeriesDescription": "NIH_EPI_2.0iso_TR2_Run02",
    "SeriesNumber": 6,
    "ShimSetting": [
      -125,
      144,
      1430,
      2389,
      -185,
      -70,
      136,
      -236
    ],
    "SliceThickness": 2,
    "SliceTiming": [
      1.0025,
      0,
      1.04,
      0.0375,
      1.0775,
      0.075,
      1.115,
      0.1125,
      1.1525,
      0.1475,
      1.19,
      0.185,
      1.2275,
      0.2225,
      1.265,
      0.26,
      1.3,
      0.2975,
      1.3375,
      0.335,
      1.375,
      0.3725,
      1.4125,
      0.4075,
      1.45,
      0.445,
      1.4875,
      0.4825,
      1.525,
      0.52,
      1.5625,
      0.5575,
      1.5975,
      0.595,
      1.635,
      0.6325,
      1.6725,
      0.67,
      1.71,
      0.705,
      1.7475,
      0.7425,
      1.785,
      0.78,
      1.8225,
      0.8175,
      1.8575,
      0.855,
      1.895,
      0.8925,
      1.9325,
      0.93,
      1.97,
      0.9675
    ],
    "SoftwareVersions": "syngo_MR_B17",
    "SpacingBetweenSlices": 2,
    "StationName": "FMRIFD7T",
    "TaskName": "FullFovNoAttentionTask",
    "TotalReadoutTime": 0.0190001,
    "TxRefAmp": 303,
    "dataset": "ds001555",
    "dcmmeta_affine": [
      [
        -1.9999831914901733,
        4.2201880878778297e-10,
        0.008208253420889378,
        95.76705169677734
      ],
      [
        -0.0013402394251897931,
        1.973159670829773,
        -0.32655632495880127,
        -63.118167877197266
      ],
      [
        0.008098097518086433,
        0.32655906677246094,
        1.9731431007385254,
        -38.87153625488281
      ],
      [
        0.0,
        0.0,
        0.0,
        1.0
      ]
    ],
    "dcmmeta_reorient_transform": [
      [
        0.0,
        -1.0,
        0.0,
        95.0
      ],
      [
        1.0,
        0.0,
        0.0,
        0.0
      ],
      [
        0.0,
        0.0,
        1.0,
        0.0
      ],
      [
        0.0,
        0.0,
        0.0,
        1.0
      ]
    ],
    "dcmmeta_shape": [
      96,
      96,
      54,
      164
    ],
    "dcmmeta_slice_dim": 2,
    "dcmmeta_version": 0.6,
    "global": {
      "const": {
        "AcquisitionMatrix": [
          0,
          96,
          96,
          0
        ],
        "Allergies": "No Known Allergies",
        "AngioFlag": "N",
        "BitsAllocated": 16,
        "BitsStored": 12,
        "BodyPartExamined": "HEAD",
        "Columns": 768,
        "EchoNumbers": 1,
        "EchoTime": 25.0,
        "EchoTrainLength": 1,
        "FlipAngle": 50.0,
        "HighBit": 11,
        "ImageOrientationPatient": [
          0.99999157803662,
          0.00067011969073,
          0.00404904870684,
          2.110094e-10,
          0.98657984636313,
          -0.1632795356133
        ],
        "ImagePositionPatient": [
          -767.761392775,
          -787.76398131462,
          99.154463849561
        ],
        "ImageType": [
          "ORIGINAL",
          "PRIMARY",
          "M",
          "ND",
          "ECHO_00",
          "MOSAIC"
        ],
        "ImagedNucleus": "1H",
        "ImagingFrequency": 297.204905,
        "InPlanePhaseEncodingDirection": "ROW",
        "LargestImagePixelValue": 4095,
        "MRAcquisitionType": "2D",
        "MagneticFieldStrength": 6.98,
        "Manufacturer": "SIEMENS",
        "ManufacturerModelName": "Investigational_Device_7T",
        "Modality": "MR",
        "NumberOfAverages": 1.0,
        "NumberOfPhaseEncodingSteps": 94,
        "PercentPhaseFieldOfView": 100.0,
        "PercentSampling": 100.0,
        "PerformedProcedureStepStartTime": "101043.468000",
        "PhotometricInterpretation": "MONOCHROME2",
        "PixelBandwidth": 2003.0,
        "PixelRepresentation": 0,
        "PixelSpacing": [
          2.0,
          2.0
        ],
        "PositionReferenceIndicator": "",
        "ProcedureCodeSequence": [
          {
            "CodeMeaning": "MRI Procedure Limited",
            "CodeValue": "MI01491",
            "CodingSchemeDesignator": "USA Standard",
            "ContextIdentifier": "4000109575"
          }
        ],
        "ProtocolName": "NIH_EPI_2.0iso_TR2_Run02",
        "ReferencedStudySequence": [
          {
            "ReferencedSOPClassUID": "1.2.840.10008.3.1.2.3.1",
            "ReferencedSOPInstanceUID": "1.2.840.113564.9.1.2723958737.61.2.5000075337"
          }
        ],
        "RepetitionTime": 2000.0,
        "RequestedProcedureCodeSequence": [
          {
            "CodeMeaning": "MRI Procedure Limited",
            "CodeValue": "MI01491",
            "CodingSchemeDesignator": "USA Standard",
            "ContextIdentifier": "4000109575"
          }
        ],
        "RequestingService": "MHED",
        "Rows": 768,
        "SAR": 0.09213524071949,
        "SamplesPerPixel": 1,
        "ScanningSequence": "EP",
        "SequenceName": "epfid2d1_96",
        "SequenceVariant": "SK",
        "SeriesDescription": "NIH_EPI_2.0iso_TR2_Run02",
        "SeriesNumber": 6,
        "SliceLocation": -27.650691900607,
        "SliceThickness": 2.0,
        "SmallestImagePixelValue": 0,
        "SoftwareVersions": "syngo MR B17",
        "SpacingBetweenSlices": 1.9999999799801,
        "TransmitCoilName": "32Ch_Head_7T",
        "VariableFlipAngleFlag": "N",
        "WindowCenterWidthExplanation": "Algo1",
        "dBdt": 0.0
      },
      "slices": {}
    },
    "modality": "bold",
    "run_id": 3,
    "session_id": "04",
    "subject_id": "002",
    "task_id": "FullFovNoAttentionTask",
    "time": {
      "samples": {
        "AcquisitionNumber": [
          1,
          2,
          3,
          4,
          5,
          6,
          7,
          8,
          9,
          10,
          11,
          12,
          13,
          14,
          15,
          16,
          17,
          18,
          19,
          20,
          21,
          22,
          23,
          24,
          25,
          26,
          27,
          28,
          29,
          30,
          31,
          32,
          33,
          34,
          35,
          36,
          37,
          38,
          39,
          40,
          41,
          42,
          43,
          44,
          45,
          46,
          47,
          48,
          49,
          50,
          51,
          52,
          53,
          54,
          55,
          56,
          57,
          58,
          59,
          60,
          61,
          62,
          63,
          64,
          65,
          66,
          67,
          68,
          69,
          70,
          71,
          72,
          73,
          74,
          75,
          76,
          77,
          78,
          79,
          80,
          81,
          82,
          83,
          84,
          85,
          86,
          87,
          88,
          89,
          90,
          91,
          92,
          93,
          94,
          95,
          96,
          97,
          98,
          99,
          100,
          101,
          102,
          103,
          104,
          105,
          106,
          107,
          108,
          109,
          110,
          111,
          112,
          113,
          114,
          115,
          116,
          117,
          118,
          119,
          120,
          121,
          122,
          123,
          124,
          125,
          126,
          127,
          128,
          129,
          130,
          131,
          132,
          133,
          134,
          135,
          136,
          137,
          138,
          139,
          140,
          141,
          142,
          143,
          144,
          145,
          146,
          147,
          148,
          149,
          150,
          151,
          152,
          153,
          154,
          155,
          156,
          157,
          158,
          159,
          160,
          161,
          162,
          163,
          164
        ],
        "AcquisitionTime": [
          "103331.070000",
          "103335.087500",
          "103337.095000",
          "103339.102500",
          "103341.110000",
          "103343.120000",
          "103345.127500",
          "103347.135000",
          "103349.142500",
          "103351.152500",
          "103353.160000",
          "103355.167500",
          "103357.175000",
          "103359.182500",
          "103401.192500",
          "103403.200000",
          "103405.207500",
          "103407.215000",
          "103409.222500",
          "103411.232500",
          "103413.240000",
          "103415.247500",
          "103417.255000",
          "103419.265000",
          "103421.272500",
          "103423.280000",
          "103425.287500",
          "103427.295000",
          "103429.305000",
          "103431.312500",
          "103433.320000",
          "103435.327500",
          "103437.335000",
          "103439.345000",
          "103441.352500",
          "103443.360000",
          "103445.367500",
          "103447.377500",
          "103449.385000",
          "103451.392500",
          "103453.400000",
          "103455.407500",
          "103457.417500",
          "103459.425000",
          "103501.432500",
          "103503.440000",
          "103505.447500",
          "103507.457500",
          "103509.465000",
          "103511.472500",
          "103513.480000",
          "103515.487500",
          "103517.497500",
          "103519.505000",
          "103521.512500",
          "103523.520000",
          "103525.530000",
          "103527.537500",
          "103529.545000",
          "103531.552500",
          "103533.560000",
          "103535.570000",
          "103537.577500",
          "103539.585000",
          "103541.592500",
          "103543.600000",
          "103545.610000",
          "103547.617500",
          "103549.625000",
          "103551.632500",
          "103553.642500",
          "103555.650000",
          "103557.657500",
          "103559.665000",
          "103601.672500",
          "103603.682500",
          "103605.690000",
          "103607.697500",
          "103609.705000",
          "103611.712500",
          "103613.722500",
          "103615.730000",
          "103617.737500",
          "103619.745000",
          "103621.755000",
          "103623.762500",
          "103625.770000",
          "103627.777500",
          "103629.785000",
          "103631.795000",
          "103633.802500",
          "103635.810000",
          "103637.817500",
          "103639.825000",
          "103641.835000",
          "103643.842500",
          "103645.850000",
          "103647.857500",
          "103649.867500",
          "103651.875000",
          "103653.882500",
          "103655.890000",
          "103657.897500",
          "103659.907500",
          "103701.915000",
          "103703.922500",
          "103705.930000",
          "103707.937500",
          "103709.947500",
          "103711.955000",
          "103713.962500",
          "103715.970000",
          "103717.977500",
          "103719.987500",
          "103721.995000",
          "103724.002500",
          "103726.010000",
          "103728.020000",
          "103730.027500",
          "103732.035000",
          "103734.042500",
          "103736.050000",
          "103738.060000",
          "103740.067500",
          "103742.075000",
          "103744.082500",
          "103746.090000",
          "103748.100000",
          "103750.107500",
          "103752.115000",
          "103754.122500",
          "103756.132500",
          "103758.140000",
          "103800.147500",
          "103802.155000",
          "103804.162500",
          "103806.172500",
          "103808.180000",
          "103810.187500",
          "103812.195000",
          "103814.202500",
          "103816.212500",
          "103818.220000",
          "103820.227500",
          "103822.235000",
          "103824.245000",
          "103826.252500",
          "103828.260000",
          "103830.267500",
          "103832.275000",
          "103834.285000",
          "103836.292500",
          "103838.300000",
          "103840.307500",
          "103842.315000",
          "103844.325000",
          "103846.332500",
          "103848.340000",
          "103850.347500",
          "103852.355000",
          "103854.365000",
          "103856.372500",
          "103858.380000",
          "103900.387500"
        ],
        "ContentTime": [
          "103431.000000",
          "103431.015000",
          "103431.015000",
          "103431.015000",
          "103431.015000",
          "103431.031000",
          "103431.031000",
          "103431.031000",
          "103431.031000",
          "103431.031000",
          "103431.031000",
          "103431.046000",
          "103431.046000",
          "103431.046000",
          "103431.046000",
          "103431.046000",
          "103431.046000",
          "103431.046000",
          "103431.062000",
          "103431.062000",
          "103431.062000",
          "103431.062000",
          "103431.062000",
          "103431.062000",
          "103431.078000",
          "103431.078000",
          "103431.078000",
          "103431.078000",
          "103511.000000",
          "103511.000000",
          "103511.015000",
          "103511.015000",
          "103511.015000",
          "103511.015000",
          "103511.015000",
          "103511.031000",
          "103511.031000",
          "103511.031000",
          "103511.031000",
          "103511.031000",
          "103511.031000",
          "103511.031000",
          "103511.046000",
          "103511.046000",
          "103511.046000",
          "103511.046000",
          "103511.062000",
          "103511.062000",
          "103551.000000",
          "103551.000000",
          "103551.000000",
          "103551.015000",
          "103551.015000",
          "103551.015000",
          "103551.015000",
          "103551.015000",
          "103551.015000",
          "103551.031000",
          "103551.031000",
          "103551.031000",
          "103551.031000",
          "103551.031000",
          "103551.031000",
          "103551.031000",
          "103551.046000",
          "103551.046000",
          "103551.046000",
          "103551.046000",
          "103631.000000",
          "103631.000000",
          "103631.000000",
          "103631.000000",
          "103631.000000",
          "103631.015000",
          "103631.015000",
          "103631.015000",
          "103631.015000",
          "103631.015000",
          "103631.015000",
          "103631.031000",
          "103631.031000",
          "103631.031000",
          "103631.031000",
          "103631.031000",
          "103631.046000",
          "103631.046000",
          "103631.046000",
          "103631.046000",
          "103711.000000",
          "103711.000000",
          "103711.000000",
          "103711.000000",
          "103711.000000",
          "103711.015000",
          "103711.015000",
          "103711.015000",
          "103711.015000",
          "103711.015000",
          "103711.015000",
          "103711.015000",
          "103711.031000",
          "103711.031000",
          "103711.031000",
          "103711.031000",
          "103711.046000",
          "103711.046000",
          "103711.046000",
          "103711.046000",
          "103751.000000",
          "103751.000000",
          "103751.000000",
          "103751.000000",
          "103751.000000",
          "103751.015000",
          "103751.015000",
          "103751.015000",
          "103751.015000",
          "103751.015000",
          "103751.015000",
          "103751.031000",
          "103751.031000",
          "103751.031000",
          "103751.046000",
          "103751.046000",
          "103751.046000",
          "103751.046000",
          "103751.062000",
          "103751.062000",
          "103831.000000",
          "103831.000000",
          "103831.000000",
          "103831.000000",
          "103831.000000",
          "103831.015000",
          "103831.015000",
          "103831.015000",
          "103831.015000",
          "103831.031000",
          "103831.031000",
          "103831.031000",
          "103831.031000",
          "103831.031000",
          "103831.046000",
          "103831.046000",
          "103831.046000",
          "103831.046000",
          "103831.046000",
          "103831.046000",
          "103901.046000",
          "103901.046000",
          "103901.046000",
          "103901.046000",
          "103901.046000",
          "103901.046000",
          "103901.062000",
          "103901.062000",
          "103901.062000",
          "103901.062000",
          "103901.062000",
          "103901.062000",
          "103901.062000",
          "103901.078000",
          "103901.078000",
          "103901.078000"
        ],
        "InstanceCreationTime": [
          "103431.000000",
          "103431.015000",
          "103431.015000",
          "103431.015000",
          "103431.015000",
          "103431.031000",
          "103431.031000",
          "103431.031000",
          "103431.031000",
          "103431.031000",
          "103431.031000",
          "103431.046000",
          "103431.046000",
          "103431.046000",
          "103431.046000",
          "103431.046000",
          "103431.046000",
          "103431.046000",
          "103431.062000",
          "103431.062000",
          "103431.062000",
          "103431.062000",
          "103431.062000",
          "103431.062000",
          "103431.078000",
          "103431.078000",
          "103431.078000",
          "103431.078000",
          "103511.000000",
          "103511.000000",
          "103511.015000",
          "103511.015000",
          "103511.015000",
          "103511.015000",
          "103511.015000",
          "103511.031000",
          "103511.031000",
          "103511.031000",
          "103511.031000",
          "103511.031000",
          "103511.031000",
          "103511.031000",
          "103511.046000",
          "103511.046000",
          "103511.046000",
          "103511.046000",
          "103511.062000",
          "103511.062000",
          "103551.000000",
          "103551.000000",
          "103551.000000",
          "103551.015000",
          "103551.015000",
          "103551.015000",
          "103551.015000",
          "103551.015000",
          "103551.015000",
          "103551.031000",
          "103551.031000",
          "103551.031000",
          "103551.031000",
          "103551.031000",
          "103551.031000",
          "103551.031000",
          "103551.046000",
          "103551.046000",
          "103551.046000",
          "103551.046000",
          "103631.000000",
          "103631.000000",
          "103631.000000",
          "103631.000000",
          "103631.000000",
          "103631.015000",
          "103631.015000",
          "103631.015000",
          "103631.015000",
          "103631.015000",
          "103631.015000",
          "103631.031000",
          "103631.031000",
          "103631.031000",
          "103631.031000",
          "103631.031000",
          "103631.046000",
          "103631.046000",
          "103631.046000",
          "103631.046000",
          "103711.000000",
          "103711.000000",
          "103711.000000",
          "103711.000000",
          "103711.000000",
          "103711.015000",
          "103711.015000",
          "103711.015000",
          "103711.015000",
          "103711.015000",
          "103711.015000",
          "103711.015000",
          "103711.031000",
          "103711.031000",
          "103711.031000",
          "103711.031000",
          "103711.046000",
          "103711.046000",
          "103711.046000",
          "103711.046000",
          "103751.000000",
          "103751.000000",
          "103751.000000",
          "103751.000000",
          "103751.000000",
          "103751.015000",
          "103751.015000",
          "103751.015000",
          "103751.015000",
          "103751.015000",
          "103751.015000",
          "103751.031000",
          "103751.031000",
          "103751.031000",
          "103751.046000",
          "103751.046000",
          "103751.046000",
          "103751.046000",
          "103751.062000",
          "103751.062000",
          "103831.000000",
          "103831.000000",
          "103831.000000",
          "103831.000000",
          "103831.000000",
          "103831.015000",
          "103831.015000",
          "103831.015000",
          "103831.015000",
          "103831.031000",
          "103831.031000",
          "103831.031000",
          "103831.031000",
          "103831.031000",
          "103831.046000",
          "103831.046000",
          "103831.046000",
          "103831.046000",
          "103831.046000",
          "103831.046000",
          "103901.046000",
          "103901.046000",
          "103901.046000",
          "103901.046000",
          "103901.046000",
          "103901.046000",
          "103901.062000",
          "103901.062000",
          "103901.062000",
          "103901.062000",
          "103901.062000",
          "103901.062000",
          "103901.062000",
          "103901.078000",
          "103901.078000",
          "103901.078000"
        ],
        "InstanceNumber": [
          1,
          2,
          3,
          4,
          5,
          6,
          7,
          8,
          9,
          10,
          11,
          12,
          13,
          14,
          15,
          16,
          17,
          18,
          19,
          20,
          21,
          22,
          23,
          24,
          25,
          26,
          27,
          28,
          29,
          30,
          31,
          32,
          33,
          34,
          35,
          36,
          37,
          38,
          39,
          40,
          41,
          42,
          43,
          44,
          45,
          46,
          47,
          48,
          49,
          50,
          51,
          52,
          53,
          54,
          55,
          56,
          57,
          58,
          59,
          60,
          61,
          62,
          63,
          64,
          65,
          66,
          67,
          68,
          69,
          70,
          71,
          72,
          73,
          74,
          75,
          76,
          77,
          78,
          79,
          80,
          81,
          82,
          83,
          84,
          85,
          86,
          87,
          88,
          89,
          90,
          91,
          92,
          93,
          94,
          95,
          96,
          97,
          98,
          99,
          100,
          101,
          102,
          103,
          104,
          105,
          106,
          107,
          108,
          109,
          110,
          111,
          112,
          113,
          114,
          115,
          116,
          117,
          118,
          119,
          120,
          121,
          122,
          123,
          124,
          125,
          126,
          127,
          128,
          129,
          130,
          131,
          132,
          133,
          134,
          135,
          136,
          137,
          138,
          139,
          140,
          141,
          142,
          143,
          144,
          145,
          146,
          147,
          148,
          149,
          150,
          151,
          152,
          153,
          154,
          155,
          156,
          157,
          158,
          159,
          160,
          161,
          162,
          163,
          164
        ],
        "WindowCenter": [
          1065.0,
          1062.0,
          1064.0,
          1065.0,
          1064.0,
          1064.0,
          1065.0,
          1064.0,
          1067.0,
          1067.0,
          1065.0,
          1067.0,
          1065.0,
          1064.0,
          1063.0,
          1062.0,
          1064.0,
          1064.0,
          1064.0,
          1064.0,
          1063.0,
          1063.0,
          1064.0,
          1062.0,
          1063.0,
          1064.0,
          1064.0,
          1064.0,
          1064.0,
          1062.0,
          1063.0,
          1064.0,
          1062.0,
          1062.0,
          1064.0,
          1063.0,
          1063.0,
          1061.0,
          1061.0,
          1066.0,
          1065.0,
          1065.0,
          1065.0,
          1062.0,
          1065.0,
          1065.0,
          1064.0,
          1064.0,
          1064.0,
          1064.0,
          1065.0,
          1063.0,
          1066.0,
          1065.0,
          1063.0,
          1066.0,
          1065.0,
          1065.0,
          1066.0,
          1064.0,
          1066.0,
          1065.0,
          1065.0,
          1065.0,
          1064.0,
          1063.0,
          1065.0,
          1064.0,
          1064.0,
          1065.0,
          1064.0,
          1063.0,
          1066.0,
          1064.0,
          1063.0,
          1067.0,
          1066.0,
          1065.0,
          1069.0,
          1070.0,
          1065.0,
          1067.0,
          1069.0,
          1066.0,
          1068.0,
          1068.0,
          1065.0,
          1067.0,
          1068.0,
          1067.0,
          1066.0,
          1069.0,
          1067.0,
          1066.0,
          1066.0,
          1066.0,
          1067.0,
          1068.0,
          1067.0,
          1067.0,
          1068.0,
          1069.0,
          1067.0,
          1066.0,
          1066.0,
          1063.0,
          1068.0,
          1066.0,
          1066.0,
          1067.0,
          1065.0,
          1064.0,
          1069.0,
          1071.0,
          1066.0,
          1064.0,
          1062.0,
          1063.0,
          1064.0,
          1063.0,
          1064.0,
          1066.0,
          1066.0,
          1067.0,
          1066.0,
          1067.0,
          1066.0,
          1065.0,
          1067.0,
          1069.0,
          1066.0,
          1064.0,
          1066.0,
          1069.0,
          1068.0,
          1067.0,
          1069.0,
          1067.0,
          1068.0,
          1068.0,
          1066.0,
          1068.0,
          1068.0,
          1068.0,
          1068.0,
          1065.0,
          1066.0,
          1067.0,
          1067.0,
          1069.0,
          1069.0,
          1067.0,
          1068.0,
          1070.0,
          1068.0,
          1068.0,
          1068.0,
          1066.0,
          1067.0,
          1067.0,
          1068.0,
          1069.0,
          1067.0,
          1068.0
        ],
        "WindowWidth": [
          2884.0,
          2876.0,
          2890.0,
          2897.0,
          2890.0,
          2893.0,
          2884.0,
          2890.0,
          2895.0,
          2888.0,
          2886.0,
          2900.0,
          2891.0,
          2892.0,
          2885.0,
          2879.0,
          2893.0,
          2886.0,
          2881.0,
          2891.0,
          2884.0,
          2884.0,
          2889.0,
          2880.0,
          2885.0,
          2887.0,
          2877.0,
          2887.0,
          2886.0,
          2875.0,
          2881.0,
          2884.0,
          2873.0,
          2880.0,
          2886.0,
          2879.0,
          2880.0,
          2868.0,
          2875.0,
          2894.0,
          2885.0,
          2889.0,
          2882.0,
          2883.0,
          2891.0,
          2882.0,
          2880.0,
          2883.0,
          2877.0,
          2883.0,
          2880.0,
          2879.0,
          2888.0,
          2880.0,
          2876.0,
          2888.0,
          2886.0,
          2883.0,
          2889.0,
          2882.0,
          2892.0,
          2890.0,
          2885.0,
          2883.0,
          2876.0,
          2881.0,
          2890.0,
          2875.0,
          2876.0,
          2887.0,
          2878.0,
          2880.0,
          2890.0,
          2881.0,
          2885.0,
          2892.0,
          2886.0,
          2889.0,
          2902.0,
          2894.0,
          2883.0,
          2894.0,
